Time, Time Since Begin, V/V Raw Data, Force 
1597155902.8820963,0.23644566535949707,9.418e-06,-8.519892800000001
1597155903.1381085,0.49245786666870117,1.0051765e-05,-6.219072343999997
1597155903.1784549,0.5328042507171631,9.998679e-06,-6.411795758399997
1597155903.218503,0.572852373123169,9.958632e-06,-6.557182387199994
1597155903.2664435,0.6207928657531738,9.898096e-06,-6.776952281599996
1597155903.3059707,0.6603200435638428,9.784475e-06,-7.1894419600000035
1597155903.3462417,0.7005910873413086,9.72487e-06,-7.405831952
1597155903.3861055,0.740454912185669,9.7109e-06,-7.456548639999994
1597155903.4340231,0.7883725166320801,9.762123e-06,-7.270588660799994
1597155903.4745076,0.8288569450378418,9.824522e-06,-7.044055331199999
1597155903.5144947,0.8688440322875977,9.908341e-06,-6.7397588336
1597155903.554251,0.9086003303527832,9.988435e-06,-6.448985575999998
1597155903.602414,0.9567632675170898,9.980053e-06,-6.479415588800002
1597155903.6423063,0.9966557025909424,9.908341e-06,-6.7397588336
1597155903.682591,1.036940336227417,9.855255e-06,-6.9324822479999995
1597155903.7220173,1.076366662979126,9.756535e-06,-7.290875335999999
1597155903.7702324,1.1245818138122559,9.706244e-06,-7.473451782399998
1597155903.809956,1.1643054485321045,9.726733e-06,-7.3990685168
1597155903.8501992,1.2045485973358154,9.709038e-06,-7.463308444799999
1597155903.8903878,1.244737148284912,9.783544e-06,-7.192821862399995
1597155903.938181,1.2925302982330322,9.894371e-06,-6.790475521599994
1597155903.9781947,1.3325440883636475,9.988435e-06,-6.448985575999998
1597155904.0184867,1.3728361129760742,9.962358e-06,-6.543655516800001
1597155904.058369,1.4127182960510254,9.917654e-06,-6.705948918399997
1597155904.1059308,1.460280179977417,9.870157e-06,-6.878382027199997
1597155904.1464186,1.5007679462432861,9.770505e-06,-7.240158647999998
1597155904.1862047,1.5405540466308594,9.742565e-06,-7.3415920240000005
1597155904.226525,1.5808744430541992,9.673648e-06,-7.591788300799998
1597155904.2740726,1.6284220218658447,9.759329e-06,-7.2807319984
1597155904.3145545,1.6689038276672363,9.822659e-06,-7.050818766399999
1597155904.354225,1.7085742950439453,9.923242e-06,-6.6856622431999995
1597155904.3940942,1.748443603515625,9.982847e-06,-6.469272251199996
1597155904.4423926,1.7967419624328613,9.994023e-06,-6.4286989007999935
1597155904.4821837,1.8365330696105957,9.905547e-06,-6.749902171199999
1597155904.5221407,1.8764901161193848,9.92883e-06,-6.665375568000002
1597155904.5624175,1.916766881942749,9.792857e-06,-7.1590119472
1597155904.610414,1.9647634029388428,9.696931e-06,-7.507261697600001
1597155904.6584215,2.012770891189575,1.0019168e-05,-6.337412492799999
1597155904.7064884,2.060837745666504,9.831972e-06,-7.017008851199996
1597155904.7542148,2.1085641384124756,9.740703e-06,-7.3483518287999985
1597155904.8020952,2.156444549560547,1.0004267e-05,-6.391509083199999
1597155904.8502617,2.20461106300354,9.695068e-06,-7.514025132799993
1597155904.8981674,2.252516746520996,9.972602e-06,-6.5064656992
1597155904.9464862,2.300835609436035,9.845942e-06,-6.966292163200002
1597155904.9944096,2.3487589359283447,9.79472e-06,-7.152248512
1597155905.0425057,2.396855115890503,1.0034069e-05,-6.283315902399998
1597155905.0905094,2.4448587894439697,9.751879e-06,-7.307778478399996
1597155905.1383135,2.4926629066467285,9.980984e-06,-6.476035686400003
1597155905.18633,2.540679454803467,9.853393e-06,-6.939242052799997
1597155905.2345386,2.588887929916382,9.756535e-06,-7.290875335999999
1597155905.2824464,2.63679575920105,1.0005198e-05,-6.3881291808
1597155905.3304062,2.684755563735962,9.68948e-06,-7.534311807999998
1597155905.3782754,2.7326247692108154,9.963289e-06,-6.540275614400002
1597155905.4263935,2.780742883682251,9.891577e-06,-6.800618859199993
1597155905.474524,2.8288733959198,9.759329e-06,-7.2807319984
1597155905.5222166,2.876565933227539,9.981915e-06,-6.472655784000004
1597155905.5700645,2.9244139194488525,9.716488e-06,-7.436261964799996
1597155905.6185117,2.9728610515594482,9.945594e-06,-6.604515542399994
1597155905.6665223,3.020871639251709,9.877607e-06,-6.8513355472000015
1597155905.7145197,3.068869113922119,9.743497e-06,-7.3382084912
1597155905.762224,3.1165733337402344,9.99216e-06,-6.4354623360000005
1597155905.810431,3.164780378341675,9.735115e-06,-7.368638503999996
1597155905.8583114,3.212660789489746,9.922311e-06,-6.689042145599998
1597155905.9065082,3.260857582092285,9.884126e-06,-6.827668969599998
1597155905.9540176,3.3083670139312744,9.769574e-06,-7.243538550400004
1597155906.0021675,3.3565168380737305,9.952113e-06,-6.580848964799998
1597155906.0503948,3.4047441482543945,9.682961e-06,-7.557978385599995
1597155906.0981662,3.4525156021118164,9.961426e-06,-6.547039049599995
1597155906.1464133,3.500762701034546,9.838492e-06,-6.993338643199998
1597155906.1944032,3.548752546310425,9.734184e-06,-7.372018406399995
1597155906.2424774,3.5968267917633057,9.960495e-06,-6.550418952000001
1597155906.2903833,3.644732713699341,9.691343e-06,-7.527548372799998
1597155906.3386037,3.692953109741211,9.982847e-06,-6.469272251199996
1597155906.3863122,3.74066162109375,9.835698e-06,-7.003481980800004
1597155906.4341283,3.788477659225464,9.734184e-06,-7.372018406399995
1597155906.4821763,3.8365256786346436,1.001358e-05,-6.357699167999996
1597155906.5304453,3.8847947120666504,9.716488e-06,-7.436261964799996
1597155906.5786436,3.932992935180664,9.960495e-06,-6.550418952000001
1597155906.6265063,3.980855703353882,9.817071e-06,-7.071105441599997
1597155906.6744978,4.0288472175598145,9.741634e-06,-7.3449719263999995
1597155906.7225287,4.076878070831299,9.940937e-06,-6.6214223152
1597155906.7705145,4.124863862991333,9.641983e-06,-7.706744916799998
1597155906.818509,4.172858476638794,9.895302e-06,-6.787095619199995
1597155906.8662882,4.220637559890747,9.880401e-06,-6.8411922095999955
1597155906.9145153,4.268864631652832,9.698793e-06,-7.500501892799996
1597155906.9622612,4.31661057472229,9.953044e-06,-6.577469062399999
1597155907.0104084,4.364757776260376,9.698793e-06,-7.500501892799996
1597155907.0581815,4.412530899047852,9.916723e-06,-6.709328820799996
1597155907.1065364,4.460885763168335,9.835698e-06,-7.003481980800004
1597155907.1542685,4.508617877960205,9.739771e-06,-7.351735361599999
1597155907.202045,4.556394338607788,9.983778e-06,-6.465892348799997
1597155907.2502122,4.6045615673065186,9.726733e-06,-7.3990685168
1597155907.2982872,4.652636528015137,9.916723e-06,-6.709328820799996
1597155907.346162,4.700511455535889,9.83756e-06,-6.996722175999999
1597155907.3942337,4.748583078384399,9.745359e-06,-7.331448686400002
1597155907.4424932,4.796842575073242,9.933487e-06,-6.648468795199996
1597155907.489962,4.844311475753784,9.713694e-06,-7.446405302399995
1597155907.5382626,4.892611980438232,9.897165e-06,-6.780332183999995
1597155907.5863235,4.940672874450684,9.272248e-06,-9.049030860799995
1597155907.6343074,4.988656759262085,9.462237e-06,-8.3592947952
1597155907.682342,5.036691427230835,1.0195188e-05,-5.698389484799996
1597155907.730326,5.084675312042236,1.0212883e-05,-5.634149556799997
1597155907.7786338,5.132983207702637,1.0152347e-05,-5.8539194511999995
1597155907.826515,5.180864334106445,1.0237098e-05,-5.546239420799999
1597155907.8741274,5.2284767627716064,1.0047108e-05,-6.235979116800003
1597155907.9225311,5.276880502700806,1.0049902e-05,-6.225835779199997
1597155907.9701602,5.324509620666504,1.002755e-05,-6.306982479999995
1597155908.018198,5.372547388076782,1.0157004e-05,-5.837012678399994
1597155908.066292,5.4206414222717285,1.0277145e-05,-5.400852792000002
1597155908.114073,5.4684224128723145,9.954907e-06,-6.570705627199999
1597155908.1623883,5.516737699508667,1.0158867e-05,-5.830249243200001
1597155908.2104301,5.56477952003479,1.0065734e-05,-6.168359286399998
1597155908.258633,5.612982273101807,1.0162592e-05,-5.816726003200003
1597155908.3065152,5.660864591598511,1.0110438e-05,-6.006065884800002
1597155908.3543935,5.70874285697937,9.997748e-06,-6.415175660799996
1597155908.402503,5.756852388381958,1.0235235e-05,-5.553002855999999
1597155908.4501736,5.80452299118042,9.897165e-06,-6.780332183999995
1597155908.4984956,5.852844953536987,1.0188669e-05,-5.7220560624
1597155908.5462053,5.900554656982422,1.0160729e-05,-5.823489438399996
1597155908.594494,5.948843479156494,1.0087155e-05,-6.090592487999999
1597155908.6424115,5.996760845184326,1.0235235e-05,-5.553002855999999
1597155908.6905024,6.044851779937744,1.0101125e-05,-6.039875799999997
1597155908.7384818,6.092831134796143,1.0155141e-05,-5.843776113600001
1597155908.7865121,6.140861511230469,1.019612e-05,-5.695005951999995
1597155908.8345253,6.1888747215271,1.0136515e-05,-5.911395943999999
1597155908.8824942,6.236843585968018,1.0267831e-05,-5.4346663375999995
1597155908.9301898,6.284539222717285,1.008343e-05,-6.104115728000004
1597155908.9782019,6.3325512409210205,1.0221265e-05,-5.603719543999993
1597155909.0263896,6.380738973617554,1.011882e-05,-5.975635871999998
1597155909.0744379,6.4287872314453125,9.91486e-06,-6.716092256000003
1597155909.122278,6.476627349853516,1.0162592e-05,-5.816726003200003
1597155909.17049,6.524839401245117,9.940006e-06,-6.624802217599999
1597155909.2182815,6.572630882263184,1.0128133e-05,-5.941825956799995
1597155909.266169,6.620518445968628,1.0032207e-05,-6.290075707200003
1597155909.31408,6.668429374694824,9.872019e-06,-6.871622222399999
1597155909.362427,6.716776371002197,9.974465e-06,-6.499702264
1597155909.4104285,6.764777898788452,7.548369e-06,-15.3074011824
1597155909.4583738,6.812723159790039,2.26311e-07,-41.8894005456
1597155909.5064988,6.8608481884002686,-1.0450371e-05,-80.6500268784
1597155909.554373,6.908722400665283,-2.5660731e-05,-135.8697178224
1597155909.602496,6.956845283508301,-4.1434541e-05,-193.13495764639998
1597155909.6501548,7.004504203796387,-5.8641657e-05,-255.6036715728
1597155909.6983547,7.052704095840454,-7.8355893e-05,-327.17423394720004
1597155909.7462738,7.10062313079834,-9.947177e-05,-403.833313808
1597155909.7942498,7.148599147796631,-0.000123914331,-492.56958726240003
1597155909.84231,7.196659326553345,-0.000149178319,-584.2879692976001
1597155909.8902993,7.244648694992065,-0.000176587142,-683.7929603168
1597155909.938204,7.292553424835205,-0.000204188749,-783.9978343696
1597155909.9865127,7.340862035751343,-0.000234279782,-893.2403205728
1597155910.0345252,7.388874530792236,-0.000265003182,-1004.7785519328
1597155910.0824974,7.436846733093262,-0.00029592216,-1117.026809664
1597155910.1301224,7.484471797943115,-0.000329433009,-1238.6845958735998
1597155910.1783872,7.532736539840698,-0.000362523831,-1358.8175160624
1597155910.2262082,7.580557584762573,-0.000395563431,-1478.7644799024
1597155910.2745454,7.628894805908203,-0.000428407453,-1598.0014173712
1597155910.32213,7.676479339599609,-0.000457195565,-1702.513779176
1597155910.370476,7.724825382232666,-0.000480155461,-1785.8673856144
1597155910.4185257,7.772875070571899,-0.000498933718,-1854.0399698272
1597155910.4664686,7.820817947387695,-0.000512295403,-1902.5482310512
1597155910.5144775,7.868826866149902,-0.000525591895,-1950.8198156079998
1597155910.5625253,7.916874647140503,-0.000537513755,-1994.100936152
1597155910.610353,7.964702367782593,-0.000548210926,-2032.9359457504002
1597155910.6579838,8.012333154678345,-0.000538264401,-1996.8260813904
1597155910.7064764,8.060825824737549,-0.000533650629,-1980.0762435216
1597155910.754317,8.10866641998291,-0.000530288555,-1967.8705700720002
1597155910.8025,8.156849384307861,-0.000527196564,-1956.6454059456
1597155910.8505359,8.204885244369507,-0.000525057316,-1948.8790800064
1597155910.8984902,8.2528395652771,-0.000522654504,-1940.1559113216001
1597155910.9464905,8.300839900970459,-0.000520873815,-1933.6912979760002
1597155910.9944575,8.348806858062744,-0.00051934924,-1928.1564808960002
1597155911.0430548,8.397404193878174,-0.000517628156,-1921.9082575424002
1597155911.0900857,8.444435119628906,-0.000516464002,-1917.6819128608
1597155911.1383731,8.492722511291504,-0.000514981337,-1912.2992458448002
1597155911.1861343,8.540483713150024,-0.000513852574,-1908.2013846496
1597155911.2345192,8.588868618011475,-0.000512922183,-1904.8236931632
1597155911.2824874,8.636836767196655,-0.000511646271,-1900.1916222384002
1597155911.3304975,8.684846878051758,-0.000510906801,-1897.5070503504003
1597155911.3785398,8.732889175415039,-0.000509781763,-1893.4227123952003
1597155911.42634,8.780689477920532,-0.000508978032,-1890.5048473728
1597155911.4744027,8.828752040863037,-0.000508247875,-1887.8540853999998
1597155911.522215,8.876564264297485,-0.000507228076,-1884.1518071104001
1597155911.5704734,8.924822807312012,-0.000506699085,-1882.2313581839999
1597155911.6184912,8.972840547561646,-0.0005057659,-1878.84352336
1597155911.6664836,9.020833015441895,-0.000505115837,-1876.4835346448
1597155911.7145977,9.068947076797485,-0.000504601747,-1874.6171823088
1597155911.7624826,9.11683201789856,-0.00050371699,-1871.405160496
1597155911.8104017,9.164751052856445,-0.000503365882,-1870.1304980128002
1597155911.858198,9.212547302246094,-0.000502542593,-1867.1416296272002
1597155911.906492,9.260841369628906,-0.000502006151,-1865.1941305904
1597155911.9542203,9.30856966972351,-0.000501592644,-1863.6929347776
1597155912.002372,9.3567214012146,-0.000500846654,-1860.9846926815999
1597155912.0504682,9.404817581176758,-0.000500575639,-1860.0007998256
1597155912.0985308,9.452880144119263,-0.000499832444,-1857.3027046976001
1597155912.1460078,9.500357151031494,-0.000499424525,-1855.82179556
1597155912.194424,9.548773288726807,-0.000499027781,-1854.3814561424
1597155912.2426205,9.596969842910767,-0.000498335809,-1851.8693209936002
1597155912.2903628,9.644712209701538,-0.000498149544,-1851.1931045376
1597155912.338041,9.692390441894531,-0.000497554429,-1849.0325990416
1597155912.3861306,9.740479946136475,-0.000497117639,-1847.4468766256
1597155912.43456,9.788909435272217,-0.000496845692,-1846.4596002368003
1597155912.4825847,9.836934089660645,-0.000496215187,-1844.1706148847998
1597155912.5304782,9.884827613830566,-0.00049609784,-1843.744598336
1597155912.5785189,9.932868242263794,-0.000495482236,-1841.5097095744002
1597155912.62649,9.980839490890503,-0.000495146029,-1840.2891436816
1597155912.6744142,10.02876353263855,-0.000494902022,-1839.4033006688
1597155912.722351,10.076700448989868,-0.000494327396,-1837.3171784383999
1597155912.7701056,10.124454975128174,-0.000494237989,-1836.9925952656
1597155912.8184826,10.172832012176514,-0.00049367547,-1834.950426288
1597155912.8662424,10.22059178352356,-0.000493369065,-1833.838053576
1597155912.9144757,10.268825054168701,-0.000493287109,-1833.5405205136
1597155912.9625354,10.316884756088257,-0.000492687337,-1831.3631082447998
1597155913.0103376,10.364686965942383,-0.0004926119,-1831.08924176
1597155913.0584502,10.412799596786499,-0.000492060557,-1829.0876461328003
1597155913.1063673,10.460716724395752,-0.000491833314,-1828.2626631456003
1597155913.1541963,10.508545637130737,-0.000491681509,-1827.7115502736
1597155913.202546,10.55689525604248,-0.000491152517,-1825.7910977168
1597155913.250365,10.604714393615723,-0.000491129234,-1825.7065711136001
1597155913.2983012,10.652650594711304,-0.000490657985,-1823.995748744
1597155913.3464737,10.700823068618774,-0.00049042888,-1823.1640059519998
1597155913.3944678,10.748817205429077,-0.000490286388,-1822.6467029952
1597155913.442436,10.796785354614258,-0.000489820726,-1820.9561636704
1597155913.4904816,10.844830989837646,-0.000489810482,-1820.9189738528003
1597155913.5384035,10.892752885818481,-0.000489316881,-1819.1270047824
1597155913.5859795,10.94032883644104,-0.000489092432,-1818.3121651328001
1597155913.6347172,10.98906660079956,-0.000489000231,-1817.9774386224
1597155913.6822715,11.036620855331421,-0.000488499179,-1816.1584194416
1597155913.7305593,11.084908723831177,-0.000488527119,-1816.2598528176
1597155913.778396,11.132745265960693,-0.000488139689,-1814.8533269456002
1597155913.8265738,11.180923223495483,-0.000487905927,-1814.0046773808
1597155913.8745127,11.228862047195435,-0.000487773679,-1813.5245642416
1597155913.9224997,11.276849031448364,-0.000487293117,-1811.7799319568
1597155913.9705973,11.324946641921997,-0.000487335958,-1811.9354619232
1597155914.0181403,11.37248969078064,-0.000486933626,-1810.4748358304
1597155914.066119,11.4204683303833,-0.000486763194,-1809.8560994976
1597155914.1143563,11.468705654144287,-0.000486717559,-1809.6904261936
1597155914.1623888,11.516738176345825,-0.000486236066,-1807.9424140064
1597155914.2103808,11.564730167388916,-0.000486301258,-1808.1790870432
1597155914.258204,11.612553358078003,-0.000485919416,-1806.7928478464
1597155914.3065705,11.660919904708862,-0.000485697761,-1805.9881515344
1597155914.3544788,11.708828210830688,-0.000485624187,-1805.7210484848
1597155914.4022756,11.756624937057495,-0.000485206954,-1804.2063258016
1597155914.4501383,11.804487705230713,-0.000485256314,-1804.3855223455998
1597155914.498275,11.852624416351318,-0.000484882854,-1803.0297131616
1597155914.546491,11.900840282440186,-0.000484735705,-1802.4955034319999
1597155914.594224,11.948573350906372,-0.00048466865,-1802.25206696
1597155914.6424866,11.996835947036743,-0.000484275632,-1800.8252544128002
1597155914.6900275,12.044376850128174,-0.000484340824,-1801.0619274496
1597155914.7383518,12.092701196670532,-0.000483932905,-1799.581018312
1597155914.7861965,12.140545845031738,-0.00048377458,-1799.0062352319999
1597155914.8342888,12.18863821029663,-0.000483729877,-1798.8439454608
1597155914.882507,12.236856460571289,-0.000483322889,-1797.3664162256
1597155914.9303484,12.284697771072388,-0.000483432785,-1797.765382664
1597155914.9784777,12.332827091217041,-0.000483052805,-1796.3859032720002
1597155915.026391,12.380740404129028,-0.000482896343,-1795.8178836272
1597155915.0744398,12.428789138793945,-0.000482914969,-1795.8855034576
1597155915.1222441,12.476593494415283,-0.000482467934,-1794.2625875936
1597155915.1704967,12.524846076965332,-0.000482576899,-1794.6581741296
1597155915.2182798,12.57262921333313,-0.000482251868,-1793.4781815872
1597155915.2662969,12.620646238327026,-0.000482061878,-1792.7884418912001
1597155915.3140023,12.668351650238037,-0.000482087955,-1792.883111832
1597155915.3623252,12.716674566268921,-0.000481667928,-1791.3582458112
1597155915.4101348,12.764484167098999,-0.000481784344,-1791.7808824576
1597155915.4584775,12.812826871871948,-0.000481460243,-1790.6042661872
1597155915.5064807,12.860830068588257,-0.000481291674,-1789.9922932896
1597155915.554111,12.90846037864685,-0.000481336378,-1790.1545866912002
1597155915.602339,12.956688404083252,-0.000480869785,-1788.460667464
1597155915.6504743,13.004823684692383,-0.000480988994,-1788.8934438176
1597155915.6982791,13.052628517150879,-0.000480721705,-1787.923077832
1597155915.7460892,13.100438594818115,-0.00048054941,-1787.2975780640002
1597155915.7943778,13.148727178573608,-0.000480517745,-1787.1826214480002
1597155915.8420851,13.196434497833252,-0.000480193645,-1786.006008808
1597155915.8906162,13.244965553283691,-0.000480279326,-1786.3170651104
1597155915.9384773,13.292826652526855,-0.000479979441,-1785.2283626064
1597155915.9864926,13.340842008590698,-0.000479783863,-1784.5183362352
1597155916.0344715,13.388820886611938,-0.000479871407,-1784.8361559728
1597155916.0823174,13.43666672706604,-0.000479481183,-1783.4194867632
1597155916.1300313,13.484380722045898,-0.000479586422,-1783.8015464288
1597155916.1783135,13.532662868499756,-0.000479318202,-1782.8278005408001
1597155916.2262373,13.580586671829224,-0.000479110517,-1782.0738209167998
1597155916.2745507,13.628900051116943,-0.000479194336,-1782.3781174144
1597155916.3219156,13.676265001296997,-0.000478826463,-1781.0425912752
1597155916.3704896,13.724838972091675,-0.000478924252,-1781.3976044608
1597155916.4184682,13.772817611694336,-0.000478663482,-1780.4509050528002
1597155916.4664857,13.82083511352539,-0.000478445552,-1779.6597319808
1597155916.5144925,13.868841886520386,-0.000478531234,-1779.9707919136001
1597155916.562151,13.916500329971313,-0.000478181057,-1778.6995093328
