Time, Time Since Begin, V/V Raw Data, Force 
1611772991.8605397,0.44943809509277344,1.4535151e-05,-0.19727349999999788
1611772991.9002395,0.4891378879547119,1.444947e-05,-0.3257949999999994
1611772991.9400384,0.5289368629455566,1.4454126e-05,-0.3188110000000002
1611772991.9804778,0.5693762302398682,1.4537014e-05,-0.19447900000000118
1611772992.0285194,0.6174178123474121,1.4606863e-05,-0.08970550000000088
1611772992.0684462,0.6573445796966553,1.4701858e-05,0.05278700000000214
1611772992.1084874,0.6973857879638672,1.4767982e-05,0.1519730000000017
1611772992.1483986,0.7372970581054688,1.4715828e-05,0.07374199999999931
1611772992.1961951,0.7850935459136963,1.4698133e-05,0.04719949999999784
1611772992.2358203,0.824718713760376,1.4637597e-05,-0.04360450000000071
1611772992.2763321,0.8652305603027344,1.4500692e-05,-0.2489619999999988
1611772992.3163188,0.905217170715332,1.4462508e-05,-0.30623800000000045
1611772992.364508,0.9534063339233398,1.4531426e-05,-0.20286099999999863
1611772992.4043767,0.9932751655578613,1.4537945e-05,-0.19308249999999916
1611772992.4442875,1.0331859588623047,1.4613383e-05,-0.07992550000000165
1611772992.4841998,1.0730981826782227,1.4721416e-05,0.08212400000000031
1611772992.5320199,1.1209182739257812,1.4747493e-05,0.1212395000000015
1611772992.572386,1.1612844467163086,1.473166e-05,0.09749000000000052
1611772992.611477,1.2003753185272217,1.4672987e-05,0.00948049999999867
1611772992.6514707,1.2403690814971924,1.4605932e-05,-0.09110199999999935
1611772992.7001526,1.2890510559082031,1.4515594e-05,-0.22660899999999984
1611772992.740035,1.3289334774017334,1.4454126e-05,-0.3188110000000002
1611772992.780053,1.3689513206481934,1.4492311e-05,-0.26153349999999875
1611772992.820172,1.4090704917907715,1.4540739e-05,-0.18889150000000043
1611772992.8676045,1.456502914428711,1.464691e-05,-0.02963500000000252
1611772992.9077919,1.496690273284912,1.4739111e-05,0.10866649999999822
1611772992.947511,1.5364093780517578,1.472421e-05,0.08631499999999903
1611772992.9882693,1.5771677494049072,1.4722347e-05,0.08352049999999878
1611772993.0361798,1.6250782012939453,1.4667399e-05,0.0010985000000012235
1611772993.0761745,1.6650729179382324,1.4567748e-05,-0.14837799999999746
1611772993.1161156,1.7050139904022217,1.444947e-05,-0.3257949999999994
1611772993.155492,1.7443904876708984,1.4436431e-05,-0.34535350000000165
1611772993.2035482,1.7924466133117676,1.4491379e-05,-0.26293150000000054
1611772993.2434325,1.8323309421539307,1.4552847e-05,-0.1707295000000002
1611772993.283839,1.8727374076843262,1.4658086e-05,-0.012871000000000521
1611772993.3240361,1.9129345417022705,1.4728867e-05,0.09330050000000156
1611772993.3721423,1.961040735244751,1.4649704e-05,-0.025444000000000244
1611772993.4196215,2.0085198879241943,1.4492311e-05,-0.26153349999999875
1611772993.4684916,2.057389974594116,1.4659017e-05,-0.011474500000002053
1611772993.5160522,2.1049506664276123,1.452677e-05,-0.20984499999999784
1611772993.5642064,2.153104782104492,1.4665537e-05,-0.001694499999999266
1611772993.612362,2.2012603282928467,1.4687888e-05,0.03183199999999786
1611772993.66024,2.249138355255127,1.449883e-05,-0.2517549999999993
1611772993.708509,2.297407388687134,1.4743768e-05,0.11565200000000075
1611772993.7557013,2.344599723815918,1.4514662e-05,-0.22800700000000163
1611772993.8045084,2.393406867980957,1.4654361e-05,-0.018458500000001266
1611772993.8525238,2.4414222240448,1.4715828e-05,0.07374199999999931
1611772993.900509,2.489407539367676,1.4510006e-05,-0.23499100000000084
1611772993.948509,2.537407398223877,1.478754e-05,0.18130999999999986
1611772993.9962173,2.585115671157837,1.4464371e-05,-0.3034435000000002
1611772994.0445144,2.6334128379821777,1.4641322e-05,-0.03801699999999997
1611772994.0920324,2.6809308528900146,1.4681369e-05,0.022053499999998394
1611772994.1403787,2.7292771339416504,1.448486e-05,-0.27271
1611772994.1884923,2.777390718460083,1.473166e-05,0.09749000000000052
1611772994.2362897,2.825188159942627,1.4469959e-05,-0.2950614999999992
1611772994.284505,2.873403310775757,1.4713034e-05,0.06955100000000058
1611772994.33251,2.9214084148406982,1.467485e-05,0.012275000000002478
1611772994.3805373,2.969435691833496,1.4461577e-05,-0.3076345000000025
1611772994.4285107,3.017409086227417,1.4638528e-05,-0.04220799999999869
1611772994.4757895,3.064687967300415,1.4487654e-05,-0.2685190000000013
1611772994.5244288,3.1133272647857666,1.4788471e-05,0.18270649999999833
1611772994.572512,3.161410331726074,1.4675781e-05,0.013671500000000947
1611772994.6198215,3.2087199687957764,1.45128e-05,-0.23080000000000211
1611772994.6683662,3.2572646141052246,1.4585443e-05,-0.12183549999999954
1611772994.7162578,3.3051562309265137,1.4494173e-05,-0.25874049999999826
1611772994.7645164,3.35341477394104,1.4519319e-05,-0.2210214999999991
1611772994.8125224,3.401420831680298,1.4612451e-05,-0.08132349999999988
1611772994.8605046,3.4494030475616455,1.4450401e-05,-0.32439849999999737
1611772994.908516,3.4974143505096436,1.472421e-05,0.08631499999999903
1611772994.956266,3.5451643466949463,1.4502555e-05,-0.2461675000000021
1611772995.0045123,3.5934107303619385,1.472421e-05,0.08631499999999903
1611772995.0522287,3.641127109527588,1.4623627e-05,-0.06455949999999788
1611772995.1003919,3.6892902851104736,1.4368445e-05,-0.4473325000000017
1611772995.148295,3.7371933460235596,1.4595687e-05,-0.10646949999999933
1611772995.195934,3.78483247756958,1.4242716e-05,-0.6359259999999978
1611772995.2445087,3.833407163619995,1.1262484e-05,-5.106273999999999
1611772995.2922719,3.8811702728271484,9.961426e-06,-7.057860999999999
1611772995.3405104,3.9294087886810303,1.0880642e-05,-5.679037000000001
1611772995.3884234,3.9773218631744385,1.1910684e-05,-4.1339739999999985
1611772995.4362538,4.025152206420898,1.1879951e-05,-4.180073499999999
1611772995.4845114,4.073409795761108,1.1810102e-05,-4.284846999999999
1611772995.5323768,4.121275186538696,1.152698e-05,-4.709530000000001
1611772995.5803938,4.169292211532593,1.1106953e-05,-5.339570500000001
1611772995.6285148,4.2174131870269775,1.0556541e-05,-6.165188499999999
1611772995.676305,4.265203475952148,9.342097e-06,-7.9868545
1611772995.7239923,4.3128907680511475,8.92207e-06,-8.616895
1611772995.7724028,4.3613011837005615,8.349307e-06,-9.476039499999999
1611772995.8205056,4.409404039382935,8.412637e-06,-9.381044500000002
1611772995.868522,4.457420349121094,8.778647e-06,-8.8320295
1611772995.9163103,4.505208730697632,8.86526e-06,-8.70211
1611772995.9645212,4.553419589996338,9.811483e-06,-7.282775500000001
1611772996.0123758,4.601274251937866,1.0628253e-05,-6.0576205000000005
1611772996.0595706,4.648468971252441,1.1951663e-05,-4.072505500000002
1611772996.1085122,4.697410583496094,1.29072e-05,-2.639199999999999
1611772996.1556685,4.744566917419434,1.2373552e-05,-3.4396720000000016
1611772996.204521,4.793419361114502,1.2637116e-05,-3.044325999999998
1611772996.251742,4.840640306472778,1.1905096e-05,-4.1423559999999995
1611772996.3003182,4.889216661453247,1.2646429e-05,-3.0303565
1611772996.3485227,4.937421083450317,1.3113022e-05,-2.3304669999999987
1611772996.3959374,4.984835863113403,1.2808479e-05,-2.787281499999999
1611772996.4445271,5.033425569534302,1.3045967e-05,-2.4310495000000003
1611772996.4925106,5.081408977508545,1.283735e-05,-2.743974999999999
1611772996.540385,5.129283428192139,1.2973323e-05,-2.540015499999999
1611772996.588505,5.177403450012207,1.3168901e-05,-2.246648499999999
1611772996.6363134,5.22521185874939,1.3093464e-05,-2.3598040000000005
1611772996.6845434,5.273441791534424,1.3072975e-05,-2.3905375000000006
1611772996.7326136,5.32151198387146,1.2276694e-05,-3.584958999999998
1611772996.780305,5.369203329086304,1.3385899e-05,-1.9211515000000006
1611772996.8281472,5.417045593261719,1.3925135e-05,-1.1122975000000004
1611772996.8762743,5.46517276763916,1.3413839e-05,-1.8792414999999991
1611772996.9245143,5.513412714004517,1.333002e-05,-2.00497
1611772996.9725158,5.5614142417907715,1.285132e-05,-2.7230200000000018
1611772997.0203967,5.609295129776001,1.2570992e-05,-3.143512000000001
1611772997.068397,5.65729546546936,1.204852e-05,-3.927220000000002
1611772997.1160932,5.704991579055786,1.1504628e-05,-4.743058000000001
1611772997.164535,5.753433465957642,1.1651777e-05,-4.5223344999999995
1611772997.212536,5.801434516906738,1.1201017e-05,-5.1984745
1611772997.2596874,5.848585844039917,1.0634772e-05,-6.047841999999999
1611772997.3082964,5.897194862365723,1.0955147e-05,-5.5672795000000015
1611772997.3561034,5.945001840591431,9.883195e-06,-7.175207499999999
1611772997.4033644,5.992262840270996,1.0468066e-05,-6.297901000000001
1611772997.4523945,6.041292905807495,1.0746531e-05,-5.8802035
1611772997.5005126,6.089411020278931,1.0770746e-05,-5.843881
1611772997.54838,6.137278318405151,1.0984018e-05,-5.523973000000002
1611772997.5962806,6.185178995132446,1.0741875e-05,-5.8871875
1611772997.6441782,6.233076572418213,1.1207536e-05,-5.188696
1611772997.6924787,6.281377077102661,1.0821037e-05,-5.768444500000001
1611772997.7405062,6.329404592514038,1.0468997e-05,-6.296504500000001
1611772997.7882771,6.377175569534302,9.240583e-06,-8.1391255
1611772997.8362699,6.42516827583313,1.0298565e-05,-6.552152500000002
1611772997.8845189,6.473417282104492,1.1476688e-05,-4.784967999999999
1611772997.9322445,6.521142959594727,1.1311844e-05,-5.0322340000000025
1611772997.9803073,6.5692057609558105,1.2148172e-05,-3.777742
1611772998.0285354,6.617433786392212,1.0497868e-05,-6.253197999999999
1611772998.076319,6.665217399597168,8.550473e-06,-9.1742905
1611772998.1245265,6.713424921035767,9.047799e-06,-8.4283015
1611772998.172543,6.761441469192505,8.646399e-06,-9.0304015
1611772998.220547,6.809445381164551,8.808449e-06,-8.7873265
1611772998.268527,6.8574254512786865,7.461756e-06,-10.807366
1611772998.316282,6.90518045425415,3.348105e-06,-16.9778425
1611772998.3645139,6.953412294387817,3.412366e-06,-16.881451
1611772998.4125364,7.001434803009033,3.632158e-06,-16.551763
1611772998.4594529,7.048351287841797,2.041459e-06,-18.9378115
1611772998.5081995,7.097097873687744,3.375113e-06,-16.9373305
1611772998.5562568,7.145155191421509,3.700145e-06,-16.449782499999998
1611772998.6041806,7.193078994750977,3.700145e-06,-16.449782499999998
1611772998.6523874,7.241285800933838,3.856607e-06,-16.2150895
1611772998.7005138,7.289412260055542,2.861954e-06,-17.707069
1611772998.7484236,7.337321996688843,4.0913e-06,-15.86305
1611772998.796398,7.38529634475708,5.391426e-06,-13.912861
1611772998.84452,7.43341851234436,7.364899e-06,-10.9526515
1611772998.8925161,7.481414556503296,8.063391e-06,-9.9049135
1611772998.9403703,7.529268741607666,9.845011e-06,-7.232483500000001
1611772998.9878469,7.576745271682739,1.0782853e-05,-5.825720499999999
1611772999.0354443,7.624342679977417,1.2510456e-05,-3.2343159999999997
1611772999.0845628,7.673461198806763,1.3260171e-05,-2.1097435000000004
1611772999.1325605,7.721458911895752,1.2605451e-05,-3.0918235000000003
1611772999.1805503,7.769448757171631,1.354143e-05,-1.6878550000000025
1611772999.2285554,7.817453861236572,1.4260411e-05,-0.6093834999999999
1611772999.2762866,7.865185022354126,1.4422461e-05,-0.36630850000000237
1611772999.3245409,7.9134392738342285,1.4667399e-05,0.0010985000000012235
1611772999.3725438,7.961442232131958,1.4445744e-05,-0.3313839999999999
1611772999.4203968,8.009295225143433,1.4467165e-05,-0.2992524999999979
1611772999.4684956,8.057394027709961,1.4602207e-05,-0.0966895000000001
1611772999.5160756,8.104974031448364,1.4504418e-05,-0.24337299999999829
1611772999.5642576,8.153156042098999,1.4558434e-05,-0.16234899999999897
1611772999.6125357,8.201434135437012,1.4130957e-05,-0.8035645000000002
1611772999.6605434,8.249441862106323,1.2923032e-05,-2.6154519999999977
1611772999.7085361,8.297434568405151,1.3298355e-05,-2.052467499999999
1611772999.7563875,8.345285892486572,1.3913959e-05,-1.1290614999999988
1611772999.8045177,8.393416166305542,1.150649e-05,-4.740265000000001
1611772999.852515,8.441413402557373,1.1011958e-05,-5.482063
1611772999.9005132,8.48941159248352,1.0314398e-05,-6.528402999999999
1611772999.9485364,8.537434816360474,9.589829e-06,-7.615256499999999
1611772999.9960864,8.58498477935791,9.846874e-06,-7.2296890000000005
1611773000.0444045,8.633302927017212,9.7109e-06,-7.43365
1611773000.092166,8.681064367294312,6.812625e-06,-11.7810625
1611773000.1404064,8.729304790496826,-2.49594e-07,-22.374391
1611773000.1885405,8.777438879013062,-9.21078e-07,-23.381617
1611773000.2363615,8.825259923934937,2.467074e-06,-18.299388999999998
1611773000.2845523,8.873450756072998,-8.01869e-07,-23.2028035
1611773000.3325405,8.921438932418823,-1.268461e-06,-23.9026915
1611773000.3805325,8.969430923461914,-1.585111e-06,-24.3776665
1611773000.4285376,9.017436027526855,-8.028e-07,-23.2042
1611773000.4763236,9.065222024917603,-5.3551e-07,-22.803265
1611773000.5244918,9.11339020729065,-1.212582e-06,-23.818873
1611773000.5724044,9.1613028049469,-9.75095e-07,-23.4626425
1611773000.6198156,9.208714008331299,-9.14559e-07,-23.3718385
1611773000.6683953,9.257293701171875,4.33996e-07,-21.349006
1611773000.7163358,9.30523419380188,2.184883e-06,-18.7226755
1611773000.7645674,9.353465795516968,2.719462e-06,-17.920807
1611773000.8125432,9.40144157409668,2.192333e-06,-18.7115005
1611773000.8605378,9.44943618774414,3.135763e-06,-17.2963555
1611773000.9085522,9.497450590133667,2.914108e-06,-17.628838000000002
1611773000.9562979,9.545196294784546,5.430542e-06,-13.854187
1611773001.004545,9.593443393707275,1.0092743e-05,-6.8608855
1611773001.0525594,9.641457796096802,1.2012199e-05,-3.9817015
1611773001.1004004,9.689298868179321,1.3793819e-05,-1.3092715000000013
1611773001.1475656,9.736464023590088,1.3832934e-05,-1.2505989999999976
1611773001.196259,9.785157442092896,1.392886e-05,-1.1067099999999996
1611773001.2445543,9.833452701568604,1.3587996e-05,-1.6180060000000012
1611773001.292413,9.881311416625977,1.4297664e-05,-0.5535040000000002
1611773001.340523,9.929421424865723,1.4662743e-05,-0.0058854999999979896
1611773001.388566,9.977464437484741,1.4187768e-05,-0.7183479999999989
1611773001.4363194,10.025217771530151,1.3933517e-05,-1.0997245000000007
1611773001.4844615,10.073359966278076,1.3981946e-05,-1.027080999999999
1611773001.5325544,10.121452808380127,1.423154e-05,-0.6526899999999998
1611773001.580366,10.169264316558838,1.4544465e-05,-0.18330249999999992
1611773001.6284308,10.217329263687134,1.3991259e-05,-1.0131115000000008
1611773001.6759582,10.264856576919556,1.4051795e-05,-0.9223075000000023
1611773001.7237065,10.312604904174805,1.433026e-05,-0.5046099999999996
1611773001.7724147,10.361313104629517,1.4296733e-05,-0.5549004999999987
1611773001.8201065,10.409004926681519,1.4405698e-05,-0.39145300000000205
1611773001.8685417,10.45744013786316,1.3993122e-05,-1.0103170000000006
1611773001.9163094,10.505207777023315,1.4413148e-05,-0.38027800000000056
1611773001.9643507,10.55324912071228,1.4385208e-05,-0.422188000000002
1611773002.0125384,10.601436853408813,1.3957731e-05,-1.0634034999999997
1611773002.0605533,10.649451732635498,1.345668e-05,-1.814980000000002
1611773002.1085515,10.697449922561646,1.318194e-05,-2.2270900000000005
1611773002.1555731,10.744471549987793,1.1906028e-05,-4.140957999999998
1611773002.2042177,10.793116092681885,1.1688098e-05,-4.467852999999998
1611773002.251762,10.840660333633423,7.869676e-06,-10.195486
1611773002.300327,10.889225482940674,4.419126e-06,-15.371310999999999
1611773002.348529,10.937427520751953,5.159527e-06,-14.2607095
1611773002.3963096,10.98520803451538,6.043352e-06,-12.934972
1611773002.4445522,11.033450603485107,6.469898e-06,-12.295152999999999
1611773002.4924152,11.081313610076904,5.825423e-06,-13.2618655
1611773002.540547,11.129445314407349,6.092712e-06,-12.860932
1611773002.5885289,11.177427291870117,7.024966e-06,-11.462551
1611773002.6362715,11.225169897079468,6.866641e-06,-11.7000385
1611773002.6844192,11.273317575454712,7.297844e-06,-11.053234
1611773002.7325506,11.321449041366577,4.708767e-06,-14.9368495
1611773002.7803597,11.369258165359497,7.024035e-06,-11.4639475
1611773002.828161,11.417059421539307,5.721115e-06,-13.4183275
1611773002.8763137,11.465212106704712,7.473864e-06,-10.789204
1611773002.9245634,11.513461828231812,7.697381e-06,-10.4539285
1611773002.9725535,11.56145191192627,7.624738e-06,-10.562893
1611773003.0205426,11.609441041946411,6.777234e-06,-11.834149
1611773003.0685713,11.657469749450684,7.032417e-06,-11.4513745
1611773003.1163142,11.705212593078613,7.356517e-06,-10.9652245
1611773003.1645603,11.753458738327026,7.276423e-06,-11.0853655
1611773003.2125292,11.801427602767944,7.283874e-06,-11.074188999999999
1611773003.2605484,11.849446773529053,8.072704e-06,-9.890944
1611773003.308543,11.897441387176514,7.160939e-06,-11.2585915
1611773003.3560927,11.944991111755371,5.869195e-06,-13.1962075
1611773003.4044192,11.993317604064941,3.791414e-06,-16.312879
1611773003.4523602,12.041258573532104,1.084059e-06,-20.3739115
1611773003.5004754,12.08937382698059,-2.22586e-07,-22.333879
1611773003.5485625,12.137460947036743,-3.392808e-06,-27.089212
1611773003.5962882,12.185186624526978,-2.466142e-06,-25.699213
1611773003.6445494,12.233447790145874,6.42613e-07,-21.0360805
1611773003.691829,12.28072738647461,-2.205372e-06,-25.308058
1611773003.740431,12.329329490661621,-2.11224e-06,-25.16836
1611773003.7879012,12.376799583435059,2.794e-08,-21.95809
1611773003.8361175,12.425015926361084,5.170703e-06,-14.243945499999999
1611773003.8844013,12.473299741744995,1.0862015e-05,-5.706977500000001
1611773003.9322894,12.521187782287598,1.0228716e-05,-6.656926
1611773003.9805562,12.569454669952393,1.1269934e-05,-5.095099000000001
1611773004.028548,12.617446422576904,1.1878088e-05,-4.182867999999999
1611773004.0762978,12.665196180343628,1.4137477e-05,-0.793784500000001
1611773004.124577,12.713475465774536,1.4129095e-05,-0.8063575000000007
1611773004.1725504,12.761448860168457,1.4431775e-05,-0.35233750000000086
1611773004.22057,12.809468507766724,1.392141e-05,-1.1178850000000011
1611773004.268561,12.857459306716919,1.433026e-05,-0.5046099999999996
1611773004.316427,12.905325412750244,1.471024e-05,0.06535999999999831
1611773004.364556,12.953454494476318,1.4532357e-05,-0.20146450000000016
1611773004.4125853,13.001483678817749,1.3871118e-05,-1.1933229999999995
1611773004.4602427,13.04914116859436,1.4364719e-05,-0.45292149999999864
1611773004.508525,13.097423315048218,1.4290214e-05,-0.5646789999999982
1611773004.5562978,13.145196199417114,1.1314638e-05,-5.028043
1611773004.604566,13.193464517593384,1.288019e-06,-20.0679715
1611773004.6525552,13.241453647613525,-2.622604e-06,-25.933906
1611773004.7005482,13.289446592330933,-9.96515e-07,-23.4947725
1611773004.7485483,13.337446689605713,-9.98378e-07,-23.497567
1611773004.796097,13.384995460510254,-6.21192e-07,-22.931788
1611773004.8442845,13.433182954788208,-2.156943e-06,-25.2354145
1611773004.8924468,13.481345176696777,-3.854744e-06,-27.782116000000002
1611773004.9405777,13.529476165771484,-3.355555e-06,-27.0333325
1611773004.9875555,13.576453924179077,-2.749264e-06,-26.123896000000002
1611773005.0363216,13.62522006034851,-3.19723e-06,-26.795845
1611773005.084575,13.673473358154297,-5.898066e-06,-30.847099
1611773005.132558,13.721456527709961,-7.621944e-06,-33.432916
1611773005.180558,13.769456386566162,-9.37935e-06,-36.069024999999996
1611773005.2285633,13.817461729049683,-1.4256686e-05,-43.385029
1611773005.2763405,13.865238904953003,-1.5509315e-05,-45.263972499999994
1611773005.3244255,13.913323879241943,-1.873821e-05,-50.107315
1611773005.3725734,13.961471796035767,-1.894962e-05,-50.42443
1611773005.4204183,14.009316682815552,-1.9283965e-05,-50.92594750000001
1611773005.4682076,14.057106018066406,-1.8778257e-05,-50.167385499999995
1611773005.5161085,14.10500693321228,-1.4008023e-05,-43.0120345
1611773005.5642955,14.153193950653076,-4.449859e-06,-28.6747885
1611773005.6123717,14.20127010345459,2.650544e-06,-18.024184
1611773005.6605809,14.249479293823242,5.987473e-06,-13.0187905
1611773005.708556,14.297454357147217,1.1445954e-05,-4.831068999999999
