Time, Time Since Begin, V/V Raw Data, Force 
1611772247.1159117,0.23717451095581055,1.4511868e-05,-0.23219800000000035
1611772247.1550295,0.2762923240661621,1.4564022e-05,-0.15396700000000152
1611772247.1959813,0.3172440528869629,1.4509074e-05,-0.23638899999999907
1611772247.2359536,0.35721635818481445,1.4405698e-05,-0.39145300000000205
1611772247.2839947,0.4052574634552002,1.4293939e-05,-0.559091500000001
1611772247.3237162,0.4449789524078369,1.4251098e-05,-0.6233530000000016
1611772247.3632846,0.48454737663269043,1.4144927e-05,-0.7826094999999995
1611772247.4040213,0.5252840518951416,1.4274381e-05,-0.5884284999999991
1611772247.4519775,0.5732402801513672,1.4462508e-05,-0.30623800000000045
1611772247.491886,0.6131486892700195,1.4612451e-05,-0.08132349999999988
1611772247.5316355,0.6528983116149902,1.45128e-05,-0.23080000000000211
1611772247.571302,0.6925647258758545,1.4428049e-05,-0.3579264999999978
1611772247.620001,0.7412638664245605,1.4540739e-05,-0.18889150000000043
1611772247.6598792,0.781141996383667,1.4515594e-05,-0.22660899999999984
1611772247.6998794,0.8211421966552734,1.4258549e-05,-0.6121765000000003
1611772247.7395964,0.8608591556549072,1.40341e-05,-0.9488500000000002
1611772247.7871487,0.9084115028381348,1.4260411e-05,-0.6093834999999999
1611772247.828029,0.9492917060852051,1.4429912e-05,-0.3551320000000011
1611772247.8677337,0.9889965057373047,1.4406629e-05,-0.39005650000000003
1611772247.9072645,1.0285272598266602,1.44355e-05,-0.3467500000000001
1611772247.9551563,1.0764191150665283,1.4491379e-05,-0.26293150000000054
1611772247.9950821,1.116344928741455,1.4624558e-05,-0.06316299999999941
1611772248.0350294,1.156292200088501,1.4537945e-05,-0.19308249999999916
1611772248.075935,1.197197675704956,1.4370307e-05,-0.4445395000000012
1611772248.1233063,1.2445690631866455,1.414679e-05,-0.7798149999999993
1611772248.1637423,1.2850050926208496,1.4225952e-05,-0.6610720000000008
1611772248.2034826,1.3247454166412354,1.4316291e-05,-0.5255635000000005
1611772248.2432797,1.3645424842834473,1.4370307e-05,-0.4445395000000012
1611772248.2920358,1.4132986068725586,1.4314428e-05,-0.5283580000000008
1611772248.3314276,1.4526903629302979,1.444947e-05,-0.3257949999999994
1611772248.3712292,1.4924919605255127,1.4643185e-05,-0.03522249999999971
1611772248.4109063,1.5321691036224365,1.462549e-05,-0.06176500000000118
1611772248.4591253,1.580388069152832,1.4527701e-05,-0.20844850000000292
1611772248.4997568,1.6210196018218994,1.437217e-05,-0.4417449999999974
1611772248.5396376,1.660900354385376,1.4232472e-05,-0.6512920000000015
1611772248.579022,1.700284719467163,1.4225952e-05,-0.6610720000000008
1611772248.6269698,1.7482326030731201,1.4427118e-05,-0.35932299999999984
1611772248.6750085,1.7962713241577148,1.4487654e-05,-0.2685190000000013
1611772248.724032,1.845294713973999,1.4177524e-05,-0.7337139999999991
1611772248.7719898,1.8932526111602783,1.4504418e-05,-0.24337299999999829
1611772248.820024,1.9412868022918701,1.4296733e-05,-0.5549004999999987
1611772248.8679128,1.98917555809021,1.4558434e-05,-0.16234899999999897
1611772248.9159484,2.0372111797332764,1.4426187e-05,-0.3607194999999983
1611772248.9640126,2.085275411605835,1.4167279e-05,-0.7490814999999991
1611772249.0120375,2.133300304412842,1.4719553e-05,0.07932950000000005
1611772249.0600326,2.181295394897461,1.3837591e-05,-1.2436134999999986
1611772249.1080403,2.2293031215667725,1.3213605e-05,-2.1795924999999983
1611772249.154888,2.276150703430176,1.181569e-05,-4.276464999999998
1611772249.203546,2.3248088359832764,1.0753982e-05,-5.869026999999999
1611772249.2519255,2.3731882572174072,1.1662953e-05,-4.505570500000001
1611772249.2997265,2.4209892749786377,1.123827e-05,-5.142595
1611772249.34803,2.4692928791046143,1.0440126e-05,-6.339811000000001
1611772249.3959677,2.51723051071167,1.0040589e-05,-6.939116500000001
1611772249.4440215,2.565284252166748,1.0956079e-05,-5.5658815
1611772249.4918168,2.61307954788208,1.380872e-05,-1.2869199999999985
1611772249.5399818,2.6612446308135986,1.4310703e-05,-0.5339455000000015
1611772249.587149,2.708411693572998,1.404807e-05,-0.9278949999999995
1611772249.6359537,2.757216453552246,7.369556e-06,-10.945666
1611772249.6838837,2.8051464557647705,9.352341e-06,-7.9714884999999995
1611772249.731264,2.852526903152466,1.2368895e-05,-3.4466575000000006
1611772249.7800653,2.9013280868530273,9.940006e-06,-7.089991000000001
1611772249.8278925,2.949155330657959,9.072013e-06,-8.3919805
1611772249.8759472,2.9972100257873535,9.158626e-06,-8.262061
1611772249.9240181,3.045280933380127,8.57003e-06,-9.144955000000001
1611772249.9720051,3.0932679176330566,9.860843e-06,-7.2087354999999995
1611772250.0200367,3.1412994861602783,5.966984e-06,-13.049524
1611772250.0680416,3.1893043518066406,2.895482e-06,-17.656776999999998
1611772250.1159813,3.237244129180908,3.010966e-06,-17.483551
1611772250.1639996,3.2852623462677,4.012138e-06,-15.981793
1611772250.2109451,3.3322079181671143,4.469417e-06,-15.2958745
1611772250.259105,3.3803677558898926,3.182329e-06,-17.2265065
1611772250.3074176,3.428680419921875,8.5216e-07,-20.72176
1611772250.3558052,3.4770679473876953,5.09433e-07,-21.2358505
1611772250.4038796,3.5251424312591553,6.225891e-06,-12.661163499999999
1611772250.4520347,3.5732975006103516,1.0733493e-05,-5.899760499999999
1611772250.5000336,3.6212964057922363,1.0396354e-05,-6.405469
1611772250.5477734,3.6690361499786377,9.557232e-06,-7.664152
1611772250.5959554,3.7172181606292725,1.0273419e-05,-6.589871500000001
1611772250.6429756,3.7642383575439453,1.0336749e-05,-6.4948765
1611772250.691933,3.8131957054138184,1.111161e-05,-5.332585000000002
1611772250.7390804,3.8603432178497314,9.852462e-06,-7.2213069999999995
1611772250.7870853,3.9083480834960938,1.0059215e-05,-6.911177500000001
1611772250.8354728,3.956735610961914,1.1192635e-05,-5.211047499999999
1611772250.8838832,4.005146026611328,1.0052696e-05,-6.920956
1611772250.9317687,4.0530314445495605,1.0348856e-05,-6.476716
1611772250.9800239,4.1012866497039795,1.0831282e-05,-5.753077000000001
1611772251.0280132,4.1492760181427,1.0287389e-05,-6.5689164999999985
1611772251.0759854,4.197248220443726,1.0429882e-05,-6.355176999999999
1611772251.1237178,4.244980573654175,1.0637566e-05,-6.0436510000000006
1611772251.1720273,4.293290138244629,1.0612421e-05,-6.081368500000002
1611772251.2200363,4.341299057006836,1.0550022e-05,-6.174966999999999
1611772251.268015,4.389277696609497,1.127366e-05,-5.089510000000001
1611772251.3158255,4.437088251113892,9.696931e-06,-7.454603499999999
1611772251.3633978,4.484660625457764,1.816079e-06,-19.2758815
1611772251.4118214,4.533084154129028,-4.608184e-06,-28.912276
1611772251.4600308,4.58129358291626,-5.346723e-06,-30.020084500000003
1611772251.508024,4.629286766052246,-7.355586e-06,-33.033379
1611772251.5559719,4.677234649658203,-1.2036413e-05,-40.0546195
1611772251.6039052,4.725167989730835,-1.4127232e-05,-43.190848
1611772251.6512077,4.772470474243164,-1.5479513e-05,-45.219269499999996
1611772251.7000105,4.821273326873779,-1.422409e-05,-43.336135
1611772251.7480087,4.869271516799927,-9.929761e-06,-36.8946415
1611772251.795911,4.917173862457275,-8.750707e-06,-35.1260605
1611772251.8440285,4.965291261672974,-9.898096e-06,-36.847144
1611772251.8918836,5.01314640045166,-7.7812e-06,-33.6718
1611772251.939649,5.0609118938446045,-8.283183e-06,-34.4247745
1611772251.988028,5.109290838241577,-6.681308e-06,-32.021962
1611772252.0359104,5.157173156738281,-4.531816e-06,-28.797724
1611772252.083887,5.20514988899231,-6.241724e-06,-31.362586
1611772252.1313589,5.252621650695801,-6.623566e-06,-31.935349000000002
1611772252.1793895,5.300652265548706,-5.912967e-06,-30.8694505
1611772252.2280004,5.3492631912231445,-9.425916e-06,-36.138874
1611772252.2759483,5.397211074829102,-6.854534e-06,-32.281801
1611772252.3229947,5.444257497787476,-6.110407e-06,-31.1656105
1611772252.372047,5.493309736251831,-5.112961e-06,-29.669441499999998
1611772252.419846,5.541108846664429,-9.066425e-06,-35.5996375
1611772252.4675684,5.588831186294556,-5.945563e-06,-30.9183445
1611772252.5159125,5.6371753215789795,-2.3935e-07,-22.359025
1611772252.564037,5.685299873352051,2.870336e-06,-17.694496
1611772252.6114838,5.732746601104736,4.563481e-06,-15.154778499999999
1611772252.6596987,5.780961513519287,1.935288e-06,-19.097068
1611772252.708012,5.829274892807007,5.743466e-06,-13.384801000000001
1611772252.7558262,5.877089023590088,1.406949e-05,-0.8957649999999973
1611772252.8040378,5.925300598144531,1.4381483e-05,-0.4277754999999992
1611772252.8520336,5.973296403884888,1.3704412e-05,-1.4433819999999997
1611772252.900037,6.021299839019775,1.3336539e-05,-1.9951915000000007
1611772252.947763,6.069025754928589,1.4600344e-05,-0.09948400000000035
1611772252.995227,6.116489887237549,1.4376827e-05,-0.43475950000000196
1611772253.0437877,6.165050506591797,1.4215708e-05,-0.676438000000001
1611772253.0919166,6.213179349899292,1.4317222e-05,-0.524167000000002
1611772253.1398547,6.261117458343506,1.3873912e-05,-1.1891320000000007
1611772253.188055,6.3093178272247314,1.4677644e-05,0.016466000000001202
1611772253.2359476,6.357210397720337,1.4566816e-05,-0.14977599999999924
1611772253.284031,6.405293703079224,1.4047138e-05,-0.9292929999999977
1611772253.3320417,6.4533045291900635,1.39568e-05,-1.0648000000000017
1611772253.380019,6.50128173828125,1.4359131e-05,-0.46130349999999964
1611772253.4280245,6.54928731918335,1.3281591e-05,-2.0776134999999982
1611772253.4755914,6.596854209899902,9.077601e-06,-8.3835985
1611772253.5229964,6.644259214401245,8.081086e-06,-9.878371000000001
1611772253.5715907,6.6928534507751465,8.510426e-06,-9.234361
1611772253.619292,6.7405548095703125,9.904616e-06,-7.143075999999999
1611772253.667776,6.789038896560669,8.450821e-06,-9.3237685
1611772253.7159605,6.837223291397095,7.548369e-06,-10.6774465
1611772253.7639618,6.8852245807647705,3.444962e-06,-16.832557
1611772253.8118894,6.933152198791504,4.773028e-06,-14.840458
1611772253.8598049,6.981067657470703,4.15463e-06,-15.768055
1611772253.9077785,7.029041290283203,-2.81259e-07,-22.4218885
1611772253.9559808,7.0772435665130615,9.75095e-07,-20.5373575
1611772254.0038893,7.125152111053467,1.027249e-06,-20.4591265
1611772254.0516312,7.17289400100708,-1.491979e-06,-24.2379685
1611772254.0991676,7.220430374145508,-5.116686e-06,-29.675029
1611772254.1478763,7.269139051437378,-1.231208e-06,-23.846812
1611772254.1959531,7.317215919494629,-6.585382e-06,-31.878073
1611772254.2440338,7.3652966022491455,-5.074777e-06,-29.6121655
1611772254.2920804,7.413343191146851,-3.834255e-06,-27.7513825
1611772254.3400366,7.461299419403076,-2.324581e-06,-25.4868715
1611772254.388067,7.509329795837402,4.202127e-06,-15.6968095
1611772254.4359913,7.557254076004028,7.385388e-06,-10.921918
1611772254.483961,7.605223894119263,5.727634e-06,-13.408549
1611772254.5320091,7.653271913528442,6.503426e-06,-12.244861
1611772254.5791414,7.700404167175293,8.875504e-06,-8.686744000000001
1611772254.626813,7.748075723648071,8.392148e-06,-9.411778
1611772254.6754935,7.796756267547607,7.721595e-06,-10.417607499999999
1611772254.7240138,7.845276594161987,7.733703e-06,-10.3994455
1611772254.7720022,7.893265008926392,8.202158e-06,-9.696763
1611772254.8198903,7.941153049468994,7.769093e-06,-10.3463605
1611772254.868025,7.989287853240967,4.841015e-06,-14.7384775
1611772254.9159644,8.037227153778076,1.644716e-06,-19.532926
1611772254.9637535,8.085016250610352,-2.166256e-06,-25.249384
1611772255.011314,8.132576704025269,-4.869886e-06,-29.304828999999998
1611772255.0600443,8.181307077407837,-6.573275e-06,-31.8599125
1611772255.107121,8.228383779525757,-9.913929e-06,-36.8708935
1611772255.154881,8.276143789291382,-1.1190772e-05,-38.786158
1611772255.2035358,8.324798583984375,-9.630807e-06,-36.4462105
1611772255.251905,8.373167753219604,-7.374212e-06,-33.061318
1611772255.3000624,8.421325206756592,-7.052906e-06,-32.579359
1611772255.3480508,8.469313621520996,-1.1584722e-05,-39.377083
1611772255.3959155,8.517178297042847,-1.429487e-05,-43.442305000000005
1611772255.4431498,8.564412593841553,-1.0645017e-05,-37.9675255
1611772255.4917705,8.613033294677734,-9.777024e-06,-36.665536
1611772255.5392275,8.660490274429321,-6.716698e-06,-32.075047
1611772255.5869107,8.708173513412476,-6.314367e-06,-31.4715505
1611772255.635447,8.756709814071655,-8.33068e-06,-34.49602
1611772255.6840048,8.805267572402954,-1.0176562e-05,-37.264843
1611772255.731417,8.85267972946167,-7.54185e-06,-33.312775
1611772255.7798743,8.901137113571167,-3.019348e-06,-26.529022
1611772255.8278894,8.94915223121643,-4.9267e-07,-22.739005
1611772255.8759835,8.997246265411377,3.649853e-06,-16.5252205
1611772255.9240355,9.045298337936401,6.902963e-06,-11.6455555
1611772255.971989,9.093251705169678,5.995855e-06,-13.0062175
1611772256.0200105,9.141273260116577,9.167939e-06,-8.2480915
1611772256.0680091,9.189271926879883,9.740703e-06,-7.3889455
1611772256.1151452,9.236407995223999,8.248724e-06,-9.626914
1611772256.164007,9.285269737243652,1.0671094e-05,-5.993358999999998
1611772256.2120123,9.333275079727173,9.888783e-06,-7.166825500000002
1611772256.2599545,9.381217241287231,8.962117e-06,-8.5568245
1611772256.3074641,9.4287269115448,1.0235235e-05,-6.647147499999999
1611772256.3559213,9.477184057235718,1.0709278e-05,-5.936083
1611772256.404047,9.525309801101685,8.552335e-06,-9.1714975
1611772256.4520502,9.573312997817993,9.330921e-06,-8.0036185
1611772256.4999113,9.621174097061157,9.174459e-06,-8.2383115
1611772256.5479875,9.669250249862671,6.96443e-06,-11.553355
1611772256.5951412,9.71640396118164,6.088987e-06,-12.8665195
1611772256.6440284,9.765291213989258,3.057532e-06,-17.413702
1611772256.6916118,9.812874555587769,2.671033e-06,-17.9934505
1611772256.740006,9.861268758773804,2.019107e-06,-18.9713395
1611772256.7880282,9.90929102897644,5.04218e-06,-14.43673
1611772256.8350518,9.95631456375122,4.808418e-06,-14.787373
1611772256.88389,10.005152702331543,-9.53674e-07,-23.430511
1611772256.9320621,10.053324937820435,-6.590039e-06,-31.8850585
1611772256.9797676,10.101030349731445,-6.354414e-06,-31.531621
1611772257.0274346,10.14869737625122,-3.818423e-06,-27.7276345
1611772257.0753698,10.196632623672485,-4.92949e-06,-29.394235000000002
1611772257.123013,10.24427580833435,-6.153248e-06,-31.229872
1611772257.1713858,10.292648553848267,-9.019859e-06,-35.529788499999995
1611772257.220003,10.341265678405762,-1.0617077e-05,-37.9256155
1611772257.268032,10.389294862747192,-9.376556e-06,-36.064834000000005
1611772257.3159215,10.43718433380127,-1.0028481e-05,-37.0427215
1611772257.3639274,10.485190153121948,-9.781681e-06,-36.6725215
1611772257.411821,10.53308367729187,-9.899028e-06,-36.848542
1611772257.459883,10.581145763397217,-9.418465e-06,-36.127697500000004
1611772257.507696,10.628958702087402,-7.191673e-06,-32.7875095
1611772257.5559597,10.677222490310669,-2.214685e-06,-25.3220275
1611772257.6033595,10.724622249603271,3.609806e-06,-16.585290999999998
1611772257.6520534,10.773316144943237,6.85174e-06,-11.722389999999999
1611772257.7000473,10.821310043334961,6.971881e-06,-11.5421785
1611772257.7480536,10.869316339492798,7.054769e-06,-11.4178465
1611772257.7959747,10.917237520217896,7.779337e-06,-10.330994500000001
1611772257.844043,10.965305805206299,8.80193e-06,-8.797105
1611772257.8919606,11.01322340965271,8.367002e-06,-9.449497
1611772257.93966,11.060922861099243,7.308088e-06,-11.037868
1611772257.9879012,11.109163999557495,8.053146e-06,-9.920281
1611772258.0359652,11.157227993011475,8.864328e-06,-8.703508
1611772258.084029,11.205291748046875,7.973053e-06,-10.0404205
1611772258.131112,11.25237488746643,7.959083e-06,-10.0613755
1611772258.1797113,11.300974130630493,8.063391e-06,-9.9049135
1611772258.2280378,11.349300622940063,8.051284e-06,-9.923074
1611772258.2759686,11.397231340408325,3.940426e-06,-16.089361
1611772258.3233619,11.444624662399292,-2.555549e-06,-25.8333235
1611772258.3720403,11.493303060531616,-3.959984e-06,-27.939976
1611772258.4190104,11.540273189544678,-1.1472031e-05,-39.208046499999995
1611772258.467552,11.588814735412598,-1.4016405e-05,-43.0246075
1611772258.5159228,11.63718557357788,-1.5455298e-05,-45.182947
1611772258.5640337,11.685296535491943,-1.3247132e-05,-41.870698000000004
1611772258.6118982,11.733160972595215,-1.1831522e-05,-39.747282999999996
1611772258.659807,11.7810697555542,-1.4214776e-05,-43.322164
1611772258.7077243,11.828987121582031,-1.6781501e-05,-47.1722515
1611772258.7559752,11.877238035202026,-1.7829239e-05,-48.7438585
1611772258.8040137,11.925276517868042,-1.2447126e-05,-40.670688999999996
1611772258.852014,11.973276853561401,-1.1307187e-05,-38.9607805
1611772258.9000564,12.021319150924683,-1.1072494e-05,-38.608740999999995
1611772258.9480615,12.069324254989624,-1.2446195e-05,-40.6692925
1611772258.9952078,12.116470575332642,-8.947216e-06,-35.420823999999996
1611772259.0437832,12.165045976638794,-7.653609e-06,-33.4804135
1611772259.0920513,12.213314056396484,-8.116476e-06,-34.174714
1611772259.1398487,12.261111497879028,-3.13856e-07,-22.470784
1611772259.1880457,12.309308528900146,-1.096167e-06,-23.6442505
1611772259.2359455,12.357208251953125,-2.3283e-08,-22.0349245
1611772259.284037,12.40529990196228,4.229136e-06,-15.656296000000001
1611772259.3320396,12.453302383422852,5.538575e-06,-13.692137500000001
1611772259.38004,12.501302719116211,8.923933e-06,-8.614100500000001
1611772259.4280186,12.549281358718872,8.23196e-06,-9.652059999999999
1611772259.4756918,12.596954584121704,9.32999e-06,-8.005015
1611772259.5231113,12.644374132156372,1.0444783e-05,-6.332825499999998
1611772259.5715852,12.692847967147827,9.791926e-06,-7.312111
1611772259.619744,12.741006851196289,9.728596e-06,-7.407106000000001
1611772259.6678255,12.789088249206543,1.1050142e-05,-5.424787000000002
1611772259.7157936,12.837056398391724,1.0733493e-05,-5.899760499999999
1611772259.7640133,12.885276079177856,8.417293e-06,-9.374060499999999
1611772259.8119702,12.93323302268982,1.1214055e-05,-5.178917500000001
1611772259.85967,12.980932712554932,1.0789372e-05,-5.815942
1611772259.9080064,13.029269218444824,8.143485e-06,-9.7847725
1611772259.9559758,13.0772385597229,3.398396e-06,-16.902406
1611772260.003886,13.12514877319336,1.03377e-07,-21.8449345
1611772260.0518825,13.173145294189453,-3.996305e-06,-27.9944575
1611772260.0997715,13.221034288406372,-5.613081e-06,-30.419621499999998
1611772260.1478932,13.269155979156494,-3.742054e-06,-27.613081
1611772260.1959589,13.317221641540527,-2.929941e-06,-26.3949115
1611772260.2440386,13.365301370620728,-4.447065e-06,-28.6705975
1611772260.2919667,13.41322946548462,-9.957701e-06,-36.9365515
1611772260.3400433,13.461306095123291,-1.4702789e-05,-44.0541835
1611772260.3880248,13.509287595748901,-1.361873e-05,-42.428095
1611772260.4352348,13.556497573852539,-1.040753e-05,-37.611295
1611772260.48403,13.605292797088623,-1.2356788e-05,-40.535182000000006
1611772260.532024,13.653286695480347,-1.5893951e-05,-45.840926499999995
1611772260.5798771,13.7011399269104,-1.5903264e-05,-45.854896
1611772260.6276114,13.748874187469482,-1.4965422e-05,-44.448133
1611772260.6750433,13.796306133270264,-1.5345402e-05,-45.018102999999996
1611772260.723842,13.845104694366455,-2.0161271e-05,-52.2419065
1611772260.7713754,13.892638206481934,-1.5989877e-05,-45.9848155
1611772260.8198845,13.941147327423096,-1.3043173e-05,-41.5647595
1611772260.8678868,13.989149570465088,-5.539507e-06,-30.3092605
1611772260.915984,14.037246704101562,1.286156e-06,-20.070766
1611772260.9640284,14.085291147232056,7.588416e-06,-10.617376
1611772261.0117579,14.133020639419556,1.0915101e-05,-5.6273485
1611772261.0599978,14.181260585784912,1.0508113e-05,-6.237830499999999
1611772261.107898,14.229160785675049,1.088623e-05,-5.670655
1611772261.1559038,14.277166604995728,9.202398e-06,-8.196403
1611772261.2035284,14.324791193008423,9.614043e-06,-7.578935499999998
1611772261.2518952,14.373157978057861,1.0074116e-05,-6.888826000000002
1611772261.3000414,14.42130422592163,1.0884367e-05,-5.6734495
1611772261.3480096,14.469272375106812,9.996817e-06,-7.0047745
