Time, Time Since Begin, V/V Raw Data, Force 
1611772352.94795,0.28095436096191406,1.473166e-05,0.09749000000000052
1611772352.9880195,0.32102394104003906,1.4791265e-05,0.1868975000000006
1611772353.0279858,0.3609902858734131,1.4774501e-05,0.16175150000000116
1611772353.075975,0.4089794158935547,1.473166e-05,0.09749000000000052
1611772353.1159444,0.44894886016845703,1.4642254e-05,-0.036619000000001733
1611772353.1558104,0.4888148307800293,1.4549121e-05,-0.1763185000000007
1611772353.1959841,0.5289885997772217,1.4515594e-05,-0.22660899999999984
1611772353.24404,0.5770444869995117,1.1021271e-05,-5.468093500000002
1611772353.2840815,0.6170859336853027,1.4515594e-05,-0.22660899999999984
1611772353.3240435,0.6570479869842529,1.4538877e-05,-0.19168450000000092
1611772353.3635635,0.6965680122375488,1.463294e-05,-0.05058999999999969
1611772353.411642,0.7446465492248535,1.4612451e-05,-0.08132349999999988
1611772353.4520638,0.7850682735443115,1.4236197e-05,-0.6457045000000008
1611772353.4920561,0.8250606060028076,1.4655292e-05,-0.017061999999999244
1611772353.5319421,0.8649466037750244,1.4635734e-05,-0.046398999999997415
1611772353.5796475,0.9126520156860352,1.4235266e-05,-0.6471009999999993
1611772353.6199353,0.9529397487640381,1.4494173e-05,-0.25874049999999826
1611772353.659434,0.992438554763794,1.4523976e-05,-0.21403600000000012
1611772353.6998897,1.0328941345214844,1.4566816e-05,-0.14977599999999924
1611772353.7474012,1.0804057121276855,1.463946e-05,-0.04081000000000046
1611772353.7872941,1.1202986240386963,1.4741905e-05,0.1128575000000005
1611772353.8278828,1.1608872413635254,1.474563e-05,0.11844500000000124
1611772353.8677773,1.2007818222045898,1.473818e-05,0.10726999999999975
1611772353.9150753,1.248079776763916,1.4686026e-05,0.029039000000000925
1611772353.9558418,1.2888462543487549,1.4614314e-05,-0.07852899999999963
1611772353.9953275,1.3283319473266602,1.4327466e-05,-0.5088010000000018
1611772354.0352075,1.3682119846343994,1.3539568e-05,-1.6906479999999995
1611772354.0829487,1.4159531593322754,1.2932345e-05,-2.6014824999999995
1611772354.12386,1.456864356994629,1.2279488e-05,-3.580767999999999
1611772354.163621,1.4966254234313965,1.2272038e-05,-3.5919430000000006
1611772354.2034824,1.5364868640899658,1.2443401e-05,-3.3348985000000013
1611772354.2513542,1.5843586921691895,1.2381934e-05,-3.4270989999999983
1611772354.2912834,1.6242878437042236,1.2408011e-05,-3.3879835000000007
1611772354.3314235,1.6644279956817627,1.216121e-05,-3.758185000000001
1611772354.370822,1.7038264274597168,1.1595897e-05,-4.606154499999999
1611772354.4193635,1.7523679733276367,1.1469238e-05,-4.796143000000001
1611772354.4678845,1.800889015197754,1.169648e-05,-4.455280000000002
1611772354.5156171,1.8486216068267822,1.1686236e-05,-4.470645999999999
1611772354.5634682,1.896472692489624,1.1742115e-05,-4.386827499999999
1611772354.6120734,1.945077896118164,1.213979e-05,-3.7903149999999997
1611772354.6599994,1.9930038452148438,1.2423843e-05,-3.3642354999999995
1611772354.708087,2.0410914421081543,1.3518147e-05,-1.722779499999998
1611772354.7559626,2.0889670848846436,1.3560988e-05,-1.6585180000000008
1611772354.8040495,2.137053966522217,1.3498589e-05,-1.7521164999999996
1611772354.8520803,2.185084819793701,1.4351681e-05,-0.47247850000000113
1611772354.8994431,2.232447624206543,1.3702549e-05,-1.4461765
1611772354.9479368,2.2809412479400635,1.3950281e-05,-1.0745784999999977
1611772354.9952414,2.3282458782196045,1.04215e-05,-6.367749999999999
1611772355.0437372,2.376741647720337,1.1553057e-05,-4.6704145
1611772355.0920663,2.4250707626342773,1.325272e-05,-2.120919999999998
1611772355.140084,2.473088502883911,1.236517e-05,-3.4522450000000013
1611772355.1880794,2.5210838317871094,1.1820346e-05,-4.269480999999999
1611772355.2359931,2.568997621536255,1.2561679e-05,-3.1574814999999994
1611772355.2840586,2.617063045501709,1.2804754e-05,-2.7928689999999996
1611772355.3320608,2.665065288543701,1.3354234e-05,-1.9686489999999992
1611772355.379744,2.7127485275268555,1.3254583e-05,-2.118125499999998
1611772355.4280617,2.761066198348999,1.3718382e-05,-1.422426999999999
1611772355.4759152,2.808919668197632,1.3888814e-05,-1.1667790000000018
1611772355.5229397,2.8559441566467285,1.3857149e-05,-1.2142765000000004
1611772355.5715353,2.9045398235321045,1.4635734e-05,-0.046398999999997415
1611772355.6201575,2.9531619548797607,1.4380552e-05,-0.4291720000000012
1611772355.6680613,3.001065731048584,1.4653429e-05,-0.0198564999999995
1611772355.7159576,3.048962116241455,1.4655292e-05,-0.017061999999999244
1611772355.7640538,3.0970582962036133,1.4522113e-05,-0.21683050000000037
1611772355.8120534,3.1450579166412354,1.4737248e-05,0.10587199999999797
1611772355.8600729,3.193077325820923,1.4491379e-05,-0.26293150000000054
1611772355.9079368,3.240941286087036,1.4690682e-05,0.03602300000000014
1611772355.95546,3.2884645462036133,1.4628284e-05,-0.057573999999998904
1611772356.0040798,3.3370842933654785,1.4477409e-05,-0.28388650000000126
1611772356.052076,3.385080575942993,1.464691e-05,-0.02963500000000252
1611772356.0996397,3.4326441287994385,1.4415942e-05,-0.3760869999999983
1611772356.1478539,3.480858325958252,1.4533289e-05,-0.20006649999999837
1611772356.1959732,3.528977632522583,1.4540739e-05,-0.18889150000000043
1611772356.244072,3.5770764350891113,1.447089e-05,-0.29366500000000073
1611772356.2919338,3.6249382495880127,1.4368445e-05,-0.4473325000000017
1611772356.339941,3.672945499420166,1.4369376e-05,-0.44593599999999967
1611772356.3878398,3.720844268798828,1.4876947e-05,0.3154204999999983
1611772356.4352095,3.768213987350464,1.4459714e-05,-0.3104289999999992
1611772356.4841032,3.817107677459717,1.4351681e-05,-0.47247850000000113
1611772356.5320952,3.8650996685028076,1.4036894e-05,-0.9446590000000015
1611772356.5799017,3.9129061698913574,1.4320016e-05,-0.5199759999999998
1611772356.6280751,3.9610795974731445,1.4504418e-05,-0.24337299999999829
1611772356.675915,4.0089194774627686,1.4482997e-05,-0.27550450000000026
1611772356.7240727,4.057077169418335,1.4535151e-05,-0.19727349999999788
1611772356.7720776,4.105082035064697,1.4716759e-05,0.07513850000000133
1611772356.8200853,4.153089761734009,1.4464371e-05,-0.3034435000000002
1611772356.8680928,4.201097249984741,1.4733523e-05,0.10028450000000078
1611772356.915968,4.248972415924072,1.4657155e-05,-0.014267500000002542
1611772356.9636085,4.296612977981567,1.4571473e-05,-0.14279050000000026
1611772357.012077,4.345081567764282,1.4774501e-05,0.16175150000000116
1611772357.060072,4.393076419830322,1.4448538e-05,-0.3271930000000012
1611772357.108048,4.441052436828613,1.4719553e-05,0.07932950000000005
1611772357.1558063,4.488810777664185,1.4649704e-05,-0.025444000000000244
1611772357.2035937,4.536598205566406,1.4522113e-05,-0.21683050000000037
1611772357.2519429,4.584947347640991,1.4740042e-05,0.11006300000000024
1611772357.3000698,4.6330742835998535,1.4325604e-05,-0.5115939999999988
1611772357.3480806,4.681085109710693,1.378078e-05,-1.32883
1611772357.395172,4.728176593780518,1.2840144e-05,-2.739784
1611772357.443937,4.776941537857056,1.1357479e-05,-4.9637815
1611772357.4920754,4.825079917907715,1.4711171e-05,0.06675650000000033
1611772357.5400617,4.873066186904907,1.4430843e-05,-0.3537354999999991
1611772357.588061,4.92106556892395,1.4725141e-05,0.0877114999999975
1611772357.6360471,4.9690515995025635,1.4540739e-05,-0.18889150000000043
1611772357.6840856,5.017090082168579,1.4388002e-05,-0.41799699999999973
1611772357.7318556,5.064860105514526,1.4635734e-05,-0.046398999999997415
1611772357.7798476,5.112852096557617,1.4468096e-05,-0.29785599999999945
1611772357.8280632,5.161067724227905,1.4462508e-05,-0.30623800000000045
1611772357.8759823,5.208986759185791,1.438614e-05,-0.4207900000000002
1611772357.9240837,5.2570881843566895,1.433678e-05,-0.4948300000000003
1611772357.9719644,5.30496883392334,1.4725141e-05,0.0877114999999975
1611772358.020056,5.353060483932495,1.397077e-05,-1.043845000000001
1611772358.0680592,5.401063680648804,1.3561919e-05,-1.6571214999999988
1611772358.1159704,5.448974847793579,1.204107e-05,-3.938395
1611772358.1640806,5.497085094451904,1.2432225e-05,-3.3516624999999998
1611772358.2120764,5.545080900192261,1.3437122e-05,-1.8443170000000002
1611772358.26009,5.59309458732605,1.2583099e-05,-3.1253515000000007
1611772358.3075674,5.64057183265686,1.2107193e-05,-3.8392105
1611772358.3560014,5.6890058517456055,1.2421981e-05,-3.3670285
1611772358.4030538,5.736058235168457,1.0172836e-05,-6.740746
1611772358.4519484,5.784952878952026,9.864569e-06,-7.203146499999999
1611772358.5000591,5.83306360244751,7.424504e-06,-10.863244
1611772358.5480647,5.881069183349609,8.519739e-06,-9.220391499999998
1611772358.595914,5.928918361663818,6.951392e-06,-11.572912
1611772358.6440675,5.97707200050354,6.902032e-06,-11.646951999999999
1611772358.6920745,6.025079011917114,5.72484e-06,-13.41274
1611772358.7400606,6.0730650424957275,4.110858e-06,-15.833713
1611772358.7880516,6.121056079864502,4.404224e-06,-15.393664000000001
1611772358.8359232,6.1689276695251465,2.053566e-06,-18.919651
1611772358.8839383,6.21694278717041,1.684763e-06,-19.4728555
1611772358.9319584,6.264962911605835,2.27429e-06,-18.588565
1611772358.9799614,6.3129658699035645,4.60539e-06,-15.091915
1611772359.0278583,6.360862731933594,1.2407079e-05,-3.3893815000000025
1611772359.075996,6.409000396728516,1.310464e-05,-2.343040000000002
1611772359.1240842,6.4570887088775635,1.4101155e-05,-0.8482674999999986
1611772359.1720665,6.505070924758911,1.4511868e-05,-0.23219800000000035
1611772359.2200818,6.553086280822754,1.4233403e-05,-0.6498954999999995
1611772359.2678359,6.600840330123901,1.4477409e-05,-0.28388650000000126
1611772359.315436,6.648440361022949,1.4282763e-05,-0.5758554999999994
1611772359.3637094,6.696713924407959,1.4234334e-05,-0.648499000000001
1611772359.4116557,6.744660139083862,1.4485791e-05,-0.27131350000000154
1611772359.459857,6.792861461639404,1.4205463e-05,-0.691805500000001
1611772359.5079336,6.840938091278076,1.4263205e-05,-0.6051925000000011
1611772359.5548866,6.887891054153442,1.3958663e-05,-1.0620055000000015
1611772359.6040635,6.937067985534668,1.3644807e-05,-1.5327894999999998
1611772359.6520612,6.985065698623657,1.1910684e-05,-4.1339739999999985
1611772359.7000527,7.03305721282959,8.076429e-06,-9.885356499999999
1611772359.7480774,7.081081867218018,6.103888e-06,-12.844168
1611772359.795972,7.128976583480835,4.437752e-06,-15.343372
1611772359.844069,7.1770734786987305,3.291294e-06,-17.063059
1611772359.8920689,7.225073337554932,1.663342e-06,-19.504987
1611772359.9395692,7.272573709487915,6.70552e-07,-20.994172
1611772359.9879494,7.320953845977783,-2.6077e-08,-22.0391155
1611772360.0359719,7.368976354598999,-1.238659e-06,-23.8579885
1611772360.08407,7.41707444190979,-2.226792e-06,-25.340188
1611772360.1320615,7.465065956115723,-2.508052e-06,-25.762078
1611772360.1800625,7.513067007064819,-1.231208e-06,-23.846812
1611772360.2280822,7.561086654663086,-1.469627e-06,-24.2044405
1611772360.2759874,7.608991861343384,-2.5332e-07,-22.37998
1611772360.3240743,7.657078742980957,3.70666e-07,-21.444001
1611772360.3713257,7.704330205917358,6.29574e-07,-21.055639
1611772360.4198215,7.752825975418091,1.622364e-06,-19.566454
1611772360.4672725,7.8002769947052,1.644716e-06,-19.532926
1611772360.5159597,7.848964214324951,2.383254e-06,-18.425119
1611772360.5640993,7.897103786468506,6.7987e-08,-21.8980195
1611772360.6117408,7.944745302200317,3.880821e-06,-16.1787685
1611772360.6600695,7.9930739402771,4.362315e-06,-15.4565275
1611772360.708085,8.041089534759521,3.542751e-06,-16.6858735
1611772360.7559578,8.088962316513062,5.353242e-06,-13.970137000000001
1611772360.8040638,8.137068271636963,9.669922e-06,-7.495116999999999
1611772360.8519387,8.184943199157715,1.1692755e-05,-4.460867499999999
1611772360.899733,8.23273754119873,1.2007542e-05,-3.9886869999999988
1611772360.9477558,8.280760288238525,1.2282282e-05,-3.5765770000000003
1611772360.995941,8.328945398330688,1.2166798e-05,-3.749803
1611772361.043703,8.376707553863525,1.1771917e-05,-4.342124500000001
1611772361.0920758,8.425080299377441,1.1711381e-05,-4.432928499999999
1611772361.1400707,8.473075151443481,1.1283904e-05,-5.074144
1611772361.1880739,8.52107834815979,1.1879951e-05,-4.180073499999999
1611772361.235975,8.568979501724243,1.2135133e-05,-3.7973004999999986
1611772361.2839332,8.616937637329102,1.2336299e-05,-3.4955515000000013
1611772361.3313105,8.664314985275269,1.3166107e-05,-2.2508395000000014
1611772361.3800669,8.713071346282959,1.3221987e-05,-2.167019500000002
1611772361.4279346,8.760939121246338,1.1379831e-05,-4.930253499999999
1611772361.4759815,8.808985948562622,5.311333e-06,-14.0330005
1611772361.5239801,8.856984615325928,4.075468e-06,-15.886797999999999
1611772361.5716534,8.90465784072876,1.109205e-06,-20.3361925
1611772361.6199396,8.952944040298462,5.09433e-07,-21.2358505
1611772361.6679454,9.00094985961914,1.437031e-06,-19.8444535
1611772361.715939,9.048943519592285,-1.107343e-06,-23.6610145
1611772361.7640657,9.097070217132568,-2.941117e-06,-26.4116755
1611772361.811328,9.14433240890503,-3.460795e-06,-27.1911925
1611772361.8597422,9.192746639251709,-4.013069e-06,-28.0196035
1611772361.9080353,9.241039752960205,-4.719943e-06,-29.0799145
1611772361.9559896,9.288994073867798,-3.986061e-06,-27.9790915
1611772362.0040653,9.337069749832153,-5.543232e-06,-30.314847999999998
1611772362.052075,9.385079383850098,-5.83753e-06,-30.756295
1611772362.0994313,9.432435750961304,-1.911074e-06,-24.866611
1611772362.1478536,9.480858087539673,4.805624e-06,-14.791564000000001
1611772362.1959646,9.528969049453735,7.327646e-06,-11.008531
1611772362.2440698,9.5770742893219,7.179566e-06,-11.230651
1611772362.2919557,9.62496018409729,7.329509e-06,-11.0057365
1611772362.3397357,9.67274022102356,6.561168e-06,-12.158248
1611772362.3881013,9.721105813980103,6.821938e-06,-11.767093000000001
1611772362.435075,9.76807951927185,6.939285e-06,-11.591072500000001
1611772362.4840772,9.817081689834595,7.327646e-06,-11.008531
1611772362.5320594,9.865063905715942,7.335097e-06,-10.9973545
1611772362.5800514,9.913055896759033,6.61239e-06,-12.081415
1611772362.6279244,9.960928916931152,6.540678e-06,-12.188983
1611772362.6759129,10.008917331695557,3.569759e-06,-16.6453615
1611772362.7240748,10.057079315185547,-2.159737e-06,-25.2396055
1611772362.771945,10.104949474334717,-6.267801e-06,-31.4017015
1611772362.820066,10.153070449829102,-8.913688e-06,-35.370532
1611772362.8679354,10.200939893722534,-1.0462478e-05,-37.693717
1611772362.9152873,10.248291730880737,-1.2269244e-05,-40.403866
1611772362.9635026,10.296507120132446,-1.1114404e-05,-38.671606
1611772363.0111573,10.344161748886108,-1.0948628e-05,-38.422942
1611772363.0600753,10.39307975769043,-1.0360964e-05,-37.541446
1611772363.108075,10.441079378128052,-9.967014e-06,-36.950521
1611772363.1558256,10.488830089569092,-1.2156554e-05,-40.234831
1611772363.2034743,10.536478757858276,-1.0505319e-05,-37.7579785
1611772363.251956,10.584960460662842,-1.0601245e-05,-37.901867499999994
1611772363.2999208,10.632925271987915,-7.3025e-06,-32.95375
1611772363.3480804,10.681084871292114,-5.586073e-06,-30.3791095
1611772363.3949428,10.727947235107422,-6.233342e-06,-31.350013
1611772363.4437778,10.776782274246216,-2.481975e-06,-25.7229625
1611772363.4914744,10.8244788646698,4.163012e-06,-15.755482
1611772363.5400832,10.873087644577026,6.301329e-06,-12.5480065
1611772363.5880656,10.921070098876953,7.404014e-06,-10.893979
1611772363.6359959,10.969000339508057,7.132068e-06,-11.301898
1611772363.6840708,11.017075300216675,6.84429e-06,-11.733565
1611772363.7313793,11.064383745193481,7.289462e-06,-11.065807000000001
1611772363.7789407,11.111945152282715,7.387251e-06,-10.919123500000001
1611772363.8278754,11.160879850387573,7.369556e-06,-10.945666
1611772363.8759172,11.208921670913696,6.701797e-06,-11.9473045
1611772363.9240859,11.257090330123901,7.155351e-06,-11.266973499999999
1611772363.9720774,11.305081844329834,7.37235e-06,-10.941475
1611772364.020085,11.353089570999146,8.288771e-06,-9.5668435
1611772364.0680854,11.401089906692505,6.908551e-06,-11.6371735
1611772364.1159942,11.44899868965149,2.900138e-06,-17.649793
1611772364.164075,11.497079372406006,-2.38419e-07,-22.3576285
1611772364.212098,11.54510235786438,-2.840534e-06,-26.260801
1611772364.2600136,11.593018054962158,-5.031936e-06,-29.547904
1611772364.3073308,11.640335321426392,-3.55579e-06,-27.333685
1611772364.3559918,11.688996315002441,-2.114102e-06,-25.171153
1611772364.4031634,11.736167907714844,-1.226552e-06,-23.839828
1611772364.4518015,11.7848060131073,-1.386739e-06,-24.0801085
1611772364.4997048,11.832709312438965,-1.811422e-06,-24.717133
1611772364.5478206,11.88082504272461,5.43892e-07,-21.184162
1611772364.595551,11.928555488586426,-2.671033e-06,-26.0065495
1611772364.6436641,11.9766685962677,-3.81656e-06,-27.72484
1611772364.691758,12.024762392044067,-2.830289e-06,-26.2454335
1611772364.7400715,12.073076009750366,-2.638437e-06,-25.9576555
1611772364.7880719,12.121076345443726,-1.216307e-06,-23.8244605
1611772364.8354008,12.168405294418335,3.315508e-06,-17.026738
1611772364.8839393,12.216943740844727,5.477108e-06,-13.784338
1611772364.93209,12.265094518661499,6.434508e-06,-12.348238
1611772364.9800718,12.313076257705688,6.969087e-06,-11.546369499999999
1611772365.028086,12.361090421676636,7.368624e-06,-10.947064000000001
1611772365.0759892,12.4089937210083,7.173046e-06,-11.240431000000001
1611772365.1237557,12.456760168075562,6.937422e-06,-11.593867
1611772365.1720836,12.505088090896606,6.949529e-06,-11.575706499999999
1611772365.219786,12.552790403366089,6.900169e-06,-11.649746500000001
1611772365.2679567,12.600961208343506,7.10506e-06,-11.342410000000001
1611772365.3159714,12.648975849151611,6.821007e-06,-11.7684895
1611772365.363877,12.696881532669067,6.875955e-06,-11.6860675
1611772365.4117792,12.744783639907837,7.155351e-06,-11.266973499999999
1611772365.4599566,12.792961120605469,7.382594e-06,-10.926109
1611772365.5080922,12.841096639633179,8.075498e-06,-9.886752999999999
1611772365.555975,12.888979434967041,7.867813e-06,-10.1982805
1611772365.6040885,12.937093019485474,5.842187e-06,-13.2367195
1611772365.6520917,12.985096216201782,4.325993e-06,-15.511010500000001
1611772365.700089,13.033093452453613,4.0047e-08,-21.9399295
1611772365.7477086,13.080713033676147,-2.002344e-06,-25.003516
1611772365.7959669,13.128971338272095,-4.328787e-06,-28.4931805
1611772365.8440843,13.177088737487793,-5.315058e-06,-29.972587
1611772365.8919082,13.224912643432617,-5.121343e-06,-29.6820145
1611772365.939593,13.272597551345825,-5.575828e-06,-30.363742000000002
1611772365.987962,13.320966482162476,-5.878508e-06,-30.817762000000002
1611772366.0359733,13.368977785110474,-5.776063e-06,-30.6640945
1611772366.0840793,13.417083740234375,-6.011687e-06,-31.0175305
1611772366.132085,13.465089559555054,-5.71087e-06,-30.566305
1611772366.1799626,13.512967109680176,-5.614944e-06,-30.422416
1611772366.227793,13.560797452926636,-5.586073e-06,-30.3791095
1611772366.2759838,13.608988285064697,-6.495975e-06,-31.743962500000002
1611772366.3240283,13.65703272819519,-6.760471e-06,-32.1407065
1611772366.3721015,13.705106019973755,-4.871748e-06,-29.307622000000002
1611772366.4197223,13.752726793289185,-3.247522e-06,-26.871283
1611772366.4677913,13.800795793533325,-1.108274e-06,-23.662411
1611772366.5159523,13.848956823348999,-1.30292e-06,-23.95438
1611772366.5640705,13.897074937820435,-1.810491e-06,-24.7157365
1611772366.6119692,13.944973707199097,4.277565e-06,-15.5836525
1611772366.6596887,13.992693185806274,6.773509e-06,-11.8397365
1611772366.7081091,14.04111361503601,9.406358e-06,-7.890462999999999
1611772366.7559693,14.088973760604858,9.487383e-06,-7.7689255
1611772366.8041005,14.137104988098145,9.595416e-06,-7.606876
1611772366.8516176,14.184622049331665,9.574927e-06,-7.637609500000002
1611772366.9000778,14.233082294464111,8.806586e-06,-8.790121000000001
1611772366.9480772,14.281081676483154,8.684583e-06,-8.9731255
1611772366.9959147,14.328919172286987,8.315779e-06,-9.5263315
