Time, Time Since Begin, V/V Raw Data, Force 
1599938370.0953176,0.246812105178833,1.2493692e-05,-1.2594619999999992
1599938370.1251462,0.2766406536102295,1.2498349e-05,-1.2524765000000002
1599938370.1721773,0.323671817779541,1.2543052e-05,-1.185421999999999
1599938370.211298,0.3627924919128418,1.2615696e-05,-1.0764560000000003
1599938370.2581747,0.4096691608428955,1.2624077e-05,-1.0638845000000003
1599938370.295657,0.44715142250061035,1.2643635e-05,-1.0345475000000022
1599938370.3427389,0.4942333698272705,1.2816861e-05,-0.7747085000000027
1599938370.3739789,0.5254733562469482,1.2890436e-05,-0.6643460000000019
1599938370.4114861,0.5629806518554688,1.3031065e-05,-0.45340249999999926
1599938370.4581327,0.6096272468566895,1.3040379e-05,-0.43943149999999775
1599938370.4957576,0.647252082824707,1.2971461e-05,-0.5428084999999996
1599938370.542807,0.6943016052246094,1.2975186e-05,-0.5372209999999988
1599938370.589672,0.7411665916442871,1.295004e-05,-0.574939999999998
1599938370.6272848,0.7787792682647705,1.2953766e-05,-0.569351000000001
1599938370.658532,0.8100264072418213,1.2816861e-05,-0.7747085000000027
1599938370.7117548,0.8632493019104004,1.2805685e-05,-0.7914724999999976
1599938370.7428265,0.8943209648132324,1.2677163e-05,-0.9842554999999997
1599938370.7898617,0.9413561820983887,1.2704171e-05,-0.9437435000000001
1599938370.8274605,0.9789550304412842,1.252722e-05,-1.2091700000000003
1599938370.858739,1.0102334022521973,1.2500212e-05,-1.249682
1599938370.9168065,1.0683009624481201,1.2466684e-05,-1.2999739999999989
1599938370.9480488,1.0995433330535889,1.2538396e-05,-1.1924059999999983
1599938370.9959178,1.1474123001098633,1.2517907e-05,-1.2231394999999985
1599938371.036267,1.1877615451812744,1.259055e-05,-1.1141749999999995
1599938371.0674775,1.2189719676971436,1.2641773e-05,-1.0373405000000027
1599938371.104679,1.2561736106872559,1.2746081e-05,-0.8808785000000015
1599938371.1596422,1.3111367225646973,1.2754463e-05,-0.8683054999999982
1599938371.199741,1.3512353897094727,1.2962148e-05,-0.5567779999999978
1599938371.2392857,1.3907802104949951,1.3035722e-05,-0.4464170000000003
1599938371.2847624,1.4362568855285645,1.3053417e-05,-0.41987450000000237
1599938371.319342,1.4708364009857178,1.2998469e-05,-0.5022964999999999
1599938371.366265,1.5177595615386963,1.2579374e-05,-1.130938999999998
1599938371.4133363,1.5648307800292969,1.2679957e-05,-0.980064500000001
1599938371.46001,1.6115045547485352,1.2917444e-05,-0.6238339999999987
1599938371.5191715,1.670665979385376,1.2514181e-05,-1.2287285000000026
1599938371.555617,1.7071115970611572,1.3015233e-05,-0.4771505000000005
1599938371.6138425,1.7653369903564453,1.2593344e-05,-1.1099840000000007
1599938371.6607068,1.8122012615203857,1.2782402e-05,-0.826397
1599938371.698143,1.849637508392334,1.2944452e-05,-0.583321999999999
1599938371.7451973,1.8966917991638184,1.2514181e-05,-1.2287285000000026
1599938371.7984233,1.9499177932739258,1.304131e-05,-0.4380349999999993
1599938371.845486,1.9969804286956787,1.2626871e-05,-1.0596935000000016
1599938371.8985732,2.050067663192749,1.2701377e-05,-0.9479344999999988
1599938371.9456458,2.097140312194824,1.2905337e-05,-0.6419944999999991
1599938371.9987018,2.1501963138580322,1.2480654e-05,-1.2790190000000017
1599938372.0457623,2.1972568035125732,1.3016164e-05,-0.47575399999999846
1599938372.0904057,2.2419002056121826,1.2627803e-05,-1.0582954999999998
1599938372.1303544,2.281848907470703,1.2730248e-05,-0.9046279999999989
1599938372.1772113,2.3287057876586914,1.2924895e-05,-0.612657500000001
1599938372.2304554,2.3819499015808105,1.255516e-05,-1.1672599999999989
1599938372.284954,2.436448574066162,1.3040379e-05,-0.43943149999999775
1599938372.3306005,2.4820950031280518,1.2646429e-05,-1.0303565
1599938372.3774545,2.528949022293091,1.2718141e-05,-0.9227884999999993
1599938372.4305089,2.582003355026245,1.2919307e-05,-0.621039500000002
1599938372.4775577,2.62905216217041,1.2518838e-05,-1.221743
1599938372.515477,2.666971445083618,1.2992881e-05,-0.5106785000000009
1599938372.562193,2.7136874198913574,1.2575649e-05,-1.1365265000000022
1599938372.6239352,2.7754297256469727,1.278054e-05,-0.8291900000000005
1599938372.671942,2.8234364986419678,1.3262033e-05,-0.10695049999999995
1599938372.715895,2.867389440536499,1.2496486e-05,-1.2552710000000005
1599938372.7569594,2.908453941345215,1.3160519e-05,-0.2592214999999989
1599938372.8005724,2.9520668983459473,1.1703931e-05,-2.4441035000000007
1599938372.8632433,3.014737844467163,1.2953766e-05,-0.569351000000001
1599938372.9007006,3.0521950721740723,1.2993813e-05,-0.5092804999999991
1599938372.9477665,3.0992610454559326,1.2288801e-05,-1.5667985000000009
1599938373.000801,3.1522955894470215,1.2389384e-05,-1.4159240000000004
1599938373.04785,3.1993443965911865,1.1798926e-05,-2.301611000000001
1599938373.1009011,3.2523956298828125,1.1567958e-05,-2.6480630000000005
1599938373.1458423,3.2973368167877197,1.1271797e-05,-3.092304500000001
1599938373.199952,3.3514463901519775,1.1136755e-05,-3.2948674999999987
1599938373.245038,3.3965325355529785,1.1536293e-05,-2.6955605000000027
1599938373.2918975,3.443392038345337,1.1057593e-05,-3.4136105000000008
1599938373.332959,3.4844534397125244,1.1200085e-05,-3.199872499999998
1599938373.3798742,3.5313687324523926,1.104828e-05,-3.4275800000000025
1599938373.4330916,3.5845861434936523,1.0384247e-05,-4.4236295000000005
1599938373.47994,3.631434440612793,1.1005439e-05,-3.4918414999999996
1599938373.5332274,3.6847219467163086,1.1109747e-05,-3.3353794999999984
1599938373.580097,3.7315914630889893,1.104828e-05,-3.4275800000000025
1599938373.6176982,3.769192695617676,1.0924414e-05,-3.6133789999999983
1599938373.6737144,3.825208902359009,9.286217e-06,-6.070674499999999
1599938373.7243123,3.8758068084716797,9.546988e-06,-5.679517999999998
1599938373.7711763,3.922670841217041,8.906238e-06,-6.640642999999999
1599938373.8187325,3.970227003097534,9.718351e-06,-5.422473500000001
1599938373.865596,4.017090559005737,1.0010786e-05,-4.983820999999999
1599938373.9189148,4.070409297943115,1.0220334e-05,-4.669498999999998
1599938373.965782,4.117276430130005,1.1024997e-05,-3.462504499999998
1599938374.0032332,4.1547276973724365,1.0568649e-05,-4.147026500000001
1599938374.0503163,4.201810836791992,1.0511838e-05,-4.232242999999999
1599938374.103723,4.255217552185059,9.448268e-06,-5.827598
1599938374.1507807,4.30227518081665,9.284355e-06,-6.0734675
1599938374.2041245,4.355618953704834,9.736046e-06,-5.395930999999999
1599938374.2511773,4.402671813964844,9.867363e-06,-5.1989555
1599938374.3040724,4.455566883087158,9.757467e-06,-5.363799499999999
1599938374.3511465,4.502640962600708,1.0084361e-05,-4.8734585
1599938374.398024,4.549518585205078,1.0238029e-05,-4.6429565
1599938374.4357235,4.5872180461883545,1.1513941e-05,-2.7290884999999996
1599938374.4825783,4.634072780609131,1.1011027e-05,-3.4834594999999986
1599938374.53588,4.687374591827393,1.0129064e-05,-4.806403999999999
1599938374.5827477,4.73424220085144,1.1145137e-05,-3.282294499999999
1599938374.6360462,4.787540674209595,7.912517e-06,-8.131224499999998
1599938374.6743624,4.825856924057007,7.622875e-06,-8.5656875
1599938374.723638,4.8751325607299805,6.678514e-06,-9.982229
1599938374.770502,4.921996593475342,4.656613e-06,-13.0150805
1599938374.8209217,4.972416162490845,3.065914e-06,-15.401129000000001
1599938374.8676748,5.019169330596924,1.981854e-06,-17.027219
1599938374.9210577,5.07255220413208,1.116656e-06,-18.325015999999998
1599938374.9679163,5.119410753250122,-3.45521e-07,-20.5182815
1599938375.0211794,5.172673940658569,-1.194887e-06,-21.7923305
1599938375.0680423,5.219536781311035,-1.442619e-06,-22.1639285
1599938375.1054628,5.256957292556763,-2.368353e-06,-23.5525295
1599938375.1623747,5.31386923789978,-2.773479e-06,-24.1602185
1599938375.2053888,5.35688328742981,-4.120171e-06,-26.1802565
1599938375.2631717,5.414666175842285,-4.604459e-06,-26.9066885
1599938375.305368,5.456862449645996,-4.876405e-06,-27.3146075
1599938375.3524168,5.503911256790161,-5.835667e-06,-28.7535005
1599938375.4054887,5.556983232498169,-5.847774e-06,-28.771661
1599938375.4525495,5.604043960571289,-7.045455e-06,-30.5681825
1599938375.4994156,5.650910139083862,-1.0199845e-05,-35.2997675
1599938375.5370533,5.688547849655151,-1.3353303e-05,-40.0299545
1599938375.5995474,5.751041889190674,-1.4095567e-05,-41.1433505
1599938375.633277,5.78477144241333,-1.497753e-05,-42.466295
1599938375.6959386,5.847433090209961,-1.6981736e-05,-45.472604
1599938375.73806,5.889554500579834,-1.6493723e-05,-44.7405845
1599938375.7918959,5.943390369415283,-1.7276965e-05,-45.9154475
1599938375.8383644,5.989858865737915,-1.6607344e-05,-44.911016000000004
1599938375.88522,6.036714553833008,-1.4357269e-05,-41.5359035
1599938375.9228969,6.0743913650512695,-1.4334917e-05,-41.5023755
1599938375.9697673,6.121261835098267,-1.3533048e-05,-40.299572
1599938376.0230083,6.174502849578857,-1.3415702e-05,-40.123553
1599938376.0698683,6.221362829208374,-1.2844801e-05,-39.2672015
1599938376.1249695,6.276463985443115,-1.427345e-05,-41.410174999999995
1599938376.1720448,6.3235392570495605,-1.5472993e-05,-43.209489500000004
1599938376.2232904,6.37478494644165,-1.488626e-05,-42.329390000000004
1599938376.27015,6.421644449234009,-1.6368926e-05,-44.553388999999996
1599938376.307631,6.459125518798828,-1.6878359e-05,-45.3175385
1599938376.3649156,6.5164101123809814,-1.8024817e-05,-47.037225500000005
1599938376.4078815,6.559376001358032,-1.8409453e-05,-47.6141795
1599938376.4549646,6.606459140777588,-1.8982217e-05,-48.4733255
1599938376.508043,6.6595375537872314,-1.9711442e-05,-49.567163
1599938376.555126,6.706620454788208,-2.1041371e-05,-51.5620565
1599938376.6061018,6.757596254348755,-2.218131e-05,-53.271965
1599938376.6551673,6.80666184425354,-2.3773871e-05,-55.6608065
1599938376.702028,6.853522539138794,-2.2787601e-05,-54.1814015
1599938376.7394762,6.890970706939697,-2.4291687e-05,-56.4375305
1599938376.7863388,6.937833309173584,-2.3501925e-05,-55.2528875
1599938376.8479338,6.9994282722473145,-2.5260262e-05,-57.890392999999996
1599938376.885563,7.037057399749756,-2.5887974e-05,-58.831961
1599938376.9403434,7.0918378829956055,-2.6935712e-05,-60.403568
1599938376.9872203,7.138714790344238,-2.9081479e-05,-63.622218499999995
1599938377.0248947,7.176389217376709,-2.9248185e-05,-63.8722775
1599938377.0852852,7.236779689788818,-3.0882657e-05,-66.32398549999999
1599938377.124785,7.276279449462891,-3.1240284e-05,-66.860426
1599938377.182883,7.3343775272369385,-3.1264499e-05,-66.8967485
1599938377.2237797,7.375274181365967,-3.2875687e-05,-69.3135305
1599938377.270647,7.4221415519714355,-3.2590702e-05,-68.886053
1599938377.3255775,7.47707200050354,-3.4282915e-05,-71.4243725
1599938377.3760412,7.527535676956177,-3.6466867e-05,-74.7003005
1599938377.4096901,7.561184644699097,-3.5465695e-05,-73.1985425
1599938377.4567587,7.608253240585327,-3.7795864e-05,-76.693796
1599938377.5097933,7.661287784576416,-3.9106235e-05,-78.6593525
1599938377.564596,7.716090440750122,-4.1804276e-05,-82.706414
1599938377.610017,7.761511564254761,-4.292652e-05,-84.38978
1599938377.6570823,7.808576822280884,-4.3855049e-05,-85.7825735
1599938377.7101696,7.861664056777954,-4.7446229e-05,-91.1693435
1599938377.757254,7.908748388290405,-5.0055794e-05,-95.083691
1599938377.8041167,7.955611228942871,-5.0006434e-05,-95.009651
1599938377.841782,7.993276596069336,-5.1448122e-05,-97.172183
1599938377.9040675,8.055562019348145,-5.1332638e-05,-96.998957
1599938377.9483187,8.099813222885132,-5.1731244e-05,-97.59686599999999
1599938377.9951715,8.146666049957275,-5.2761286e-05,-99.141929
1599938378.0437684,8.195262908935547,-5.231332e-05,-98.46998
1599938378.0906193,8.242113828659058,-5.6015328e-05,-104.022992
1599938378.1433427,8.294837236404419,-5.6985766e-05,-105.478649
1599938378.190202,8.341696500778198,-5.8691017e-05,-108.0365255
1599938378.2277973,8.379291772842407,-5.8008358e-05,-107.012537
1599938378.2746642,8.426158666610718,-5.5613928e-05,-103.42089200000001
1599938378.3277764,8.479270935058594,-5.5261888e-05,-102.892832
1599938378.3746405,8.526134967803955,-5.2532181e-05,-98.7982715
1599938378.4320297,8.583524227142334,-5.2546151e-05,-98.8192265
1599938378.4690273,8.620521783828735,-5.3255819e-05,-99.8837285
1599938378.5141788,8.66567325592041,-5.3458847e-05,-100.1882705
1599938378.5612621,8.712756633758545,-5.3006224e-05,-99.509336
1599938378.6121387,8.763633251190186,-5.2942894e-05,-99.41434100000001
1599938378.6592038,8.81069827079773,-5.3192489e-05,-99.78873349999999
1599938378.7120862,8.863580703735352,-5.3729862e-05,-100.594793
1599938378.7591825,8.910676956176758,-5.4463744e-05,-101.695616
1599938378.812165,8.963659524917603,-5.7127327e-05,-105.6909905
1599938378.8592155,9.010710000991821,-5.7877041e-05,-106.8155615
1599938378.9061153,9.057609796524048,-5.9369951e-05,-109.05492650000001
1599938378.9592013,9.110695838928223,-6.1602332e-05,-112.403498
1599938378.9929688,9.144463300704956,-6.1735511e-05,-112.60326649999999
1599938379.0437462,9.19524073600769,-6.3118525e-05,-114.67778750000001
1599938379.0906065,9.242100954055786,-6.3211657e-05,-114.8174855
1599938379.1438382,9.295332670211792,-6.4143911e-05,-116.2158665
1599938379.196601,9.348095417022705,-6.4268708e-05,-116.403062
1599938379.2423716,9.393866062164307,-6.3526444e-05,-115.289666
1599938379.2894204,9.440914869308472,-6.5974891e-05,-118.9623365
1599938379.3290799,9.480574369430542,-6.564986e-05,-118.47479
1599938379.3915768,9.543071269989014,-6.4767897e-05,-117.15184550000001
1599938379.4292567,9.580751180648804,-6.4874068e-05,-117.311102
1599938379.4814196,9.632914066314697,-6.4925291e-05,-117.3879365
1599938379.5293794,9.68087387084961,-6.6557899e-05,-119.8368485
1599938379.5760458,9.727540254592896,-6.8063848e-05,-122.095772
1599938379.6295404,9.78103494644165,-6.9805421e-05,-124.7081315
1599938379.6763835,9.82787799835205,-7.1326271e-05,-126.9894065
1599938379.7138286,9.865323066711426,-7.2841533e-05,-129.26229949999998
1599938379.7608867,9.912381172180176,-7.4375421e-05,-131.5631315
1599938379.8139336,9.965428113937378,-7.4141659e-05,-131.2124885
1599938379.8608344,10.012328863143921,-7.5486489e-05,-133.2297335
1599938379.9140952,10.065589666366577,-7.5139105e-05,-132.70865750000002
1599938379.9655268,10.117021322250366,-7.2562136e-05,-128.84320400000001
1599938380.0140877,10.165582180023193,-7.4102543e-05,-131.1538145
1599938380.0574281,10.208922624588013,-7.2273426e-05,-128.41013900000002
1599938380.1041143,10.255608797073364,-7.3333271e-05,-129.9999065
1599938380.1455822,10.29707670211792,-7.2892755e-05,-129.3391325
1599938380.2080646,10.359559059143066,-7.2179362e-05,-128.269043
1599938380.246205,10.39769959449768,-7.2591007e-05,-128.88651049999999
1599938380.2930524,10.444546937942505,-7.3255971e-05,-129.8839565
1599938380.3467953,10.498289823532104,-7.2753057e-05,-129.12958550000002
1599938380.3936713,10.545165777206421,-7.3257834e-05,-129.886751
1599938380.4478958,10.599390268325806,-7.2713941e-05,-129.0709115
1599938380.4828854,10.634379863739014,-7.2641298e-05,-128.961947
1599938380.5321279,10.683622360229492,-7.3861331e-05,-130.79199649999998
1599938380.5783684,10.729862928390503,-7.4397773e-05,-131.5966595
1599938380.63261,10.784104585647583,-7.5729564e-05,-133.594346
1599938380.6795056,10.831000089645386,-7.7319331e-05,-135.9789965
1599938380.7327964,10.884290933609009,-7.8787096e-05,-138.180644
1599938380.779636,10.931130409240723,-7.9907477e-05,-139.86121550000001
1599938380.8170557,10.968550205230713,-8.0690719e-05,-141.0360785
1599938380.8797376,11.031232118606567,-8.2270242e-05,-143.40536300000002
1599938380.9174688,11.068963289260864,-8.4471889e-05,-146.7078335
1599938380.9645517,11.11604619026184,-8.3769672e-05,-145.65450800000002
1599938381.0175943,11.16908884048462,-8.4010884e-05,-146.016326
1599938381.0646586,11.216153144836426,-8.3530322e-05,-145.295483
1599938381.1177092,11.269203662872314,-8.2697719e-05,-144.0465785
1599938381.1647804,11.316274881362915,-8.5404143e-05,-148.1062145
1599938381.211656,11.363150596618652,-8.6929649e-05,-150.3944735
1599938381.2589955,11.410490036010742,-8.6477026e-05,-149.715539
1599938381.3109689,11.46246337890625,-8.3825551e-05,-145.7383265
1599938381.3495953,11.501089811325073,-8.5611828e-05,-148.417742
1599938381.4047203,11.556214809417725,-8.5379928e-05,-148.069892
1599938381.4498396,11.60133409500122,-8.7557361e-05,-151.3360415
1599938381.496701,11.648195505142212,-8.6441636e-05,-149.662454
1599938381.550263,11.701757431030273,-8.8137574e-05,-152.206361
1599938381.5969825,11.7484769821167,-8.8582747e-05,-152.8741205
1599938381.6408522,11.792346715927124,-9.0302899e-05,-155.4543485
1599938381.6877182,11.839212656021118,-9.1452152e-05,-157.178228
1599938381.7349026,11.886397123336792,-8.9020468e-05,-153.530702
1599938381.7817507,11.933245182037354,-8.9890324e-05,-154.835486
1599938381.8349566,11.986451148986816,-8.8933855e-05,-153.4007825
1599938381.8838522,12.035346746444702,-8.9006498e-05,-153.509747
1599938381.9350893,12.086583852767944,-8.9909881e-05,-154.8648215
1599938381.98198,12.133474588394165,-8.9976937e-05,-154.9654055
1599938382.0194361,12.170930624008179,-8.8271685e-05,-152.4075275
1599938382.066321,12.217815399169922,-9.0212561e-05,-155.31884150000002
1599938382.1195426,12.271037101745605,-9.0832822e-05,-156.249233
1599938382.1755705,12.327064990997314,-9.0408139e-05,-155.6122085
1599938382.219837,12.371331453323364,-9.0015121e-05,-155.0226815
1599938382.2668884,12.4183828830719,-8.9691021e-05,-154.5365315
1599938382.319935,12.471429586410522,-8.9643523e-05,-154.4652845
1599938382.3541875,12.505681991577148,-8.9230947e-05,-153.8464205
1599938382.4012403,12.552734851837158,-8.9557841e-05,-154.3367615
1599938382.4512882,12.602782726287842,-8.9612789e-05,-154.4191835
1599938382.4983504,12.649844884872437,-8.9304522e-05,-153.956783
1599938382.5519462,12.70344066619873,-9.2213042e-05,-158.319563
1599938382.598803,12.750297546386719,-9.1033056e-05,-156.549584
1599938382.6520672,12.803561687469482,-9.3153678e-05,-159.730517
1599938382.6968925,12.848387002944946,-9.2283823e-05,-158.4257345
1599938382.7519717,12.90346622467041,-9.3307346e-05,-159.96101900000002
1599938382.7990472,12.950541734695435,-9.3957409e-05,-160.9361135
1599938382.8334548,12.984949350357056,-9.5606782e-05,-163.410173
1599938382.895995,13.047489404678345,-9.6608885e-05,-164.91332749999998
1599938382.9377677,13.089262247085571,-9.7382814e-05,-166.074221
1599938382.9846356,13.136130094528198,-9.778887e-05,-166.683305
1599938383.037746,13.189240455627441,-9.6416101e-05,-164.62415149999998
1599938383.0846057,13.236100196838379,-9.7144395e-05,-165.7165925
1599938383.1220224,13.27351689338684,-9.7959302e-05,-166.938953
1599938383.169104,13.320598602294922,-9.8744407e-05,-168.1166105
1599938383.2255282,13.377022743225098,-9.9343248e-05,-169.014872
1599938383.2760925,13.427587032318115,-9.7566284e-05,-166.349426
1599938383.3227258,13.474220275878906,-9.8502263e-05,-167.7533945
1599938383.369775,13.52126955986023,-0.000100100413,-170.1506195
1599938383.4231513,13.574645757675171,-9.8509714e-05,-167.764571
1599938383.4702036,13.621698141098022,-9.9045224e-05,-168.567836
1599938383.5170739,13.66856837272644,-9.8447315e-05,-167.6709725
1599938383.5547125,13.706207036972046,-9.8287128e-05,-167.43069200000002
1599938383.601579,13.753073453903198,-9.7752549e-05,-166.62882349999998
1599938383.6548934,13.806387901306152,-9.7490847e-05,-166.2362705
1599938383.7017608,13.853255271911621,-9.7123906e-05,-165.685859
1599938383.7499797,13.901474237442017,-9.6715055e-05,-165.07258249999998
1599938383.8079433,13.959437847137451,-9.5797703e-05,-163.6965545
1599938383.8548489,14.006343364715576,-9.6196309e-05,-164.2944635
1599938383.901712,14.053206443786621,-9.6128322e-05,-164.192483
1599938383.9398282,14.091322660446167,-9.6203759e-05,-164.30563850000001
1599938383.9866943,14.13818883895874,-9.526033e-05,-162.89049500000002
1599938384.0398085,14.191303014755249,-9.5423311e-05,-163.1349665
1599938384.0866826,14.238177061080933,-9.6530654e-05,-164.795981
