Time, Time Since Begin, V/V Raw Data, Force 
1600169581.6580884,0.23753666877746582,1.2600794e-05,-1.0988089999999993
1600169581.6980877,0.27753591537475586,1.2514181e-05,-1.2287285000000026
1600169581.746423,0.32587122917175293,1.1870638e-05,-2.1940430000000006
1600169581.786554,0.36600232124328613,1.2595206e-05,-1.1071910000000003
1600169581.8264363,0.4058845043182373,1.2135133e-05,-1.7973004999999986
1600169581.8665714,0.44601964950561523,1.1862256e-05,-2.2066160000000004
1600169581.9056182,0.48506641387939453,1.1876225e-05,-2.1856624999999994
1600169581.9460804,0.5255286693572998,1.1944212e-05,-2.0836819999999996
1600169581.98627,0.5657181739807129,1.190044e-05,-2.1493399999999987
1600169582.025802,0.6052501201629639,1.2169592e-05,-1.7456120000000013
1600169582.0737991,0.6532473564147949,1.1436641e-05,-2.845038500000001
1600169582.1140323,0.6934804916381836,1.0620803e-05,-4.0687955
1600169582.153902,0.7333502769470215,9.790063e-06,-5.3149055
1600169582.1945093,0.7739574909210205,1.1002645e-05,-3.4960324999999983
1600169582.2344565,0.8139047622680664,1.1603348e-05,-2.5949779999999976
1600169582.2744136,0.8538618087768555,1.1849217e-05,-2.226174499999999
1600169582.314524,0.8939721584320068,1.1360273e-05,-2.959590500000001
1600169582.3543794,0.9338276386260986,1.0912307e-05,-3.631539499999999
1600169582.402102,0.9815502166748047,1.0671094e-05,-3.993358999999998
1600169582.4416382,1.0210864543914795,1.0490417e-05,-4.264374499999999
1600169582.481531,1.0609791278839111,1.1241063e-05,-3.138405500000001
1600169582.5215316,1.1009798049926758,1.2094155e-05,-1.858767499999999
1600169582.5617092,1.1411573886871338,1.1383556e-05,-2.9246659999999984
1600169582.601858,1.1813061237335205,1.0800548e-05,-3.7991779999999977
1600169582.641637,1.2210853099822998,1.0376796e-05,-4.434806000000002
1600169582.682174,1.2616221904754639,9.526499e-06,-5.7102515
1600169582.7305272,1.3099753856658936,9.250827e-06,-6.1237595
1600169582.7705152,1.3499634265899658,1.0697171e-05,-3.9542435000000005
1600169582.8105605,1.3900086879730225,1.1452474e-05,-2.821289
1600169582.8505416,1.4299898147583008,1.2218021e-05,-1.6729684999999996
1600169582.8905659,1.4700140953063965,1.222454e-05,-1.6631900000000002
1600169582.9374404,1.5168886184692383,1.0306016e-05,-4.540976000000001
1600169582.9859357,1.5653839111328125,9.280629e-06,-6.0790565
1600169583.0339406,1.6133887767791748,9.207986e-06,-6.188020999999999
1600169583.0825274,1.661975622177124,1.0571443e-05,-4.1428355
1600169583.1304016,1.7098498344421387,1.1160038e-05,-3.259943
1600169583.1784034,1.7578516006469727,7.466413e-06,-8.8003805
1600169583.2265196,1.8059678077697754,6.967224e-06,-9.549164000000001
1600169583.2745206,1.853968858718872,9.256415e-06,-6.115377500000001
1600169583.3225248,1.901973009109497,1.1560507e-05,-2.6592395000000018
1600169583.3705516,1.9499998092651367,1.0282733e-05,-4.575900500000001
1600169583.4183614,1.997809648513794,7.549301e-06,-8.6760485
1600169583.4665258,2.045974016189575,7.029623e-06,-9.4555655
1600169583.5141292,2.0935773849487305,9.216368e-06,-6.175448000000001
1600169583.5625625,2.1420106887817383,9.54885e-06,-5.676725000000001
1600169583.6105466,2.1899948120117188,9.059906e-06,-6.410141000000001
1600169583.6582515,2.2376997470855713,7.661991e-06,-8.507013500000001
1600169583.7065468,2.2859950065612793,8.509494e-06,-7.235759
1600169583.7545433,2.333991527557373,1.0234304e-05,-4.648543999999999
1600169583.8025546,2.382002830505371,9.303913e-06,-6.0441305
1600169583.8505242,2.4299724102020264,8.777715e-06,-6.833427499999999
1600169583.8982818,2.4777300357818604,8.873641e-06,-6.689538500000001
1600169583.9464128,2.5258610248565674,1.0127202e-05,-4.809196999999999
1600169583.9944742,2.5739223957061768,9.935349e-06,-5.0969765
1600169584.042242,2.621690273284912,9.085983e-06,-6.371025500000002
1600169584.090414,2.6698622703552246,8.291565e-06,-7.5626525
1600169584.1376407,2.7170889377593994,7.732771e-06,-8.400843499999999
1600169584.1865542,2.7660024166107178,9.130687e-06,-6.303969500000001
1600169584.2343197,2.813767910003662,9.673648e-06,-5.489528
1600169584.2825341,2.8619823455810547,8.242205e-06,-7.636692499999999
1600169584.3305357,2.9099838733673096,8.311123e-06,-7.533315499999999
1600169584.3780959,2.9575440883636475,7.628463e-06,-8.5573055
1600169584.4265406,3.005988836288452,8.481555e-06,-7.2776675
1600169584.474557,3.0540051460266113,8.690171e-06,-6.964743500000001
1600169584.52255,3.1019983291625977,7.428229e-06,-8.857656500000001
1600169584.5697126,3.149160861968994,8.781441e-06,-6.827838499999999
1600169584.6180947,3.197542905807495,8.753501e-06,-6.8697485
1600169584.6665802,3.246028423309326,9.388663e-06,-5.917005500000002
1600169584.7145789,3.294027090072632,1.0097399e-05,-4.853901500000001
1600169584.7624962,3.341944456100464,1.0144897e-05,-4.7826545
1600169584.8105588,3.3900070190429688,1.1736527e-05,-2.3952095
1600169584.8580954,3.4375436305999756,1.1681579e-05,-2.477631500000001
1600169584.9058132,3.4852614402770996,1.1931174e-05,-2.1032389999999985
1600169584.954542,3.5339901447296143,1.1433847e-05,-2.8492295
1600169585.002255,3.5817031860351562,9.369105e-06,-5.9463425
1600169585.0505219,3.629970073699951,9.222887e-06,-6.1656695
1600169585.0978844,3.677332639694214,9.413809e-06,-5.879286500000001
1600169585.1456645,3.7251126766204834,1.1022203e-05,-3.4666955
1600169585.1945107,3.773958921432495,1.1879951e-05,-2.180073499999999
1600169585.24253,3.8219783306121826,1.1973083e-05,-2.0403754999999997
1600169585.2905264,3.8699746131896973,1.2868084e-05,-0.6978740000000023
1600169585.3380888,3.917536973953247,1.2177974e-05,-1.7330390000000016
1600169585.3863547,3.9658029079437256,1.2036413e-05,-1.9453805000000024
1600169585.4339206,4.013368844985962,1.1836179e-05,-2.2457315000000015
1600169585.4825633,4.062011480331421,1.1108816e-05,-3.3367760000000004
1600169585.5305538,4.110002040863037,1.1622906e-05,-2.5656409999999994
1600169585.5782778,4.157726049423218,1.1285767e-05,-3.0713495
1600169585.6265523,4.206000566482544,1.1695549e-05,-2.4566765000000004
1600169585.6745455,4.25399374961853,1.0943972e-05,-3.584042
1600169585.7224107,4.301858901977539,1.0026619e-05,-4.9600715
1600169585.7705457,4.349993944168091,1.0463409e-05,-4.3048865
1600169585.8180957,4.397543907165527,9.899959e-06,-5.150061500000001
1600169585.8663576,4.445805788040161,1.0403804e-05,-4.394294
1600169585.9145532,4.494001388549805,9.872951e-06,-5.190573500000001
1600169585.962553,4.542001247406006,8.942559e-06,-6.586161500000001
1600169586.010558,4.590006113052368,9.36538e-06,-5.951929999999999
1600169586.0582747,4.637722969055176,8.686446e-06,-6.970331
1600169586.1064384,4.68588662147522,9.99961e-06,-5.000584999999999
1600169586.153883,4.733331203460693,1.1326745e-05,-3.0098825
1600169586.2025387,4.781986951828003,1.1729077e-05,-2.4063845000000015
1600169586.2502332,4.829681396484375,1.2554228e-05,-1.168657999999997
1600169586.298097,4.877545118331909,1.1090189e-05,-3.3647165
1600169586.3465543,4.926002502441406,9.91486e-06,-5.12771
1600169586.3945622,4.974010467529297,9.947456e-06,-5.078816
1600169586.4424312,5.021879434585571,9.633601e-06,-5.5495985
1600169586.4905622,5.070010423660278,1.0105781e-05,-4.8413284999999995
1600169586.5382533,5.117701530456543,9.134412e-06,-6.298382
1600169586.5865767,5.166024923324585,1.0536984e-05,-4.1945239999999995
1600169586.6345735,5.214021682739258,1.1289492e-05,-3.0657619999999994
1600169586.6824133,5.261861562728882,1.1033379e-05,-3.4499315000000017
1600169586.7305827,5.310030937194824,1.1324883e-05,-3.0126755000000003
1600169586.7780616,5.3575098514556885,1.0762364e-05,-3.8564539999999994
1600169586.826425,5.4058732986450195,1.1057593e-05,-3.4136105000000008
1600169586.8745384,5.453986644744873,1.0546297e-05,-4.180554500000001
1600169586.9225533,5.502001523971558,1.0216609e-05,-4.675086500000001
1600169586.9705577,5.550005912780762,1.1491589e-05,-2.7626165
1600169587.0180855,5.597533702850342,1.071021e-05,-3.934684999999998
1600169587.0665526,5.646000862121582,1.0068528e-05,-4.897207999999999
1600169587.114555,5.694003105163574,9.493902e-06,-5.7591470000000005
1600169587.1618485,5.741296768188477,8.739531e-06,-6.890703500000001
1600169587.2097538,5.789201974868774,9.899959e-06,-5.150061500000001
1600169587.257466,5.836914300918579,9.467825e-06,-5.798262500000002
1600169587.305699,5.885147333145142,9.839423e-06,-5.2408655
1600169587.3543787,5.933826923370361,9.905547e-06,-5.141679499999999
1600169587.4020708,5.981518983840942,9.483658e-06,-5.774512999999999
1600169587.450407,6.029855251312256,1.0046177e-05,-4.930734500000002
1600169587.4975913,6.077039480209351,9.557232e-06,-5.664152
1600169587.5464203,6.125868558883667,9.895302e-06,-5.157046999999999
1600169587.5945578,6.17400598526001,9.558164e-06,-5.662754000000001
1600169587.6425612,6.2220094203948975,9.09064e-06,-6.364039999999999
1600169587.6905339,6.269982099533081,9.518117e-06,-5.7228245000000015
1600169587.73825,6.317698240280151,8.909963e-06,-6.6350555
1600169587.7865465,6.365994691848755,9.435229e-06,-5.8471565000000005
1600169587.8345633,6.414011478424072,9.642914e-06,-5.535629
1600169587.8821893,6.461637496948242,8.807518e-06,-6.788723000000001
1600169587.930567,6.510015249252319,9.37283e-06,-5.940755000000001
1600169587.9782715,6.557719707489014,9.03476e-06,-6.44786
1600169588.026256,6.605704307556152,9.506941e-06,-5.739588500000002
1600169588.074555,6.654003143310547,9.167008e-06,-6.2494879999999995
1600169588.1224623,6.701910495758057,9.153038e-06,-6.270443000000002
1600169588.169674,6.749122142791748,9.903684e-06,-5.144474000000001
1600169588.2180955,6.79754376411438,9.559095e-06,-5.661357500000001
1600169588.266228,6.8456761837005615,9.457581e-06,-5.8136285
1600169588.3145356,6.893983840942383,9.559095e-06,-5.661357500000001
1600169588.362528,6.941976308822632,9.353273e-06,-5.9700904999999995
1600169588.4105513,6.989999532699585,1.0097399e-05,-4.853901500000001
1600169588.4580743,7.037522554397583,9.540468e-06,-5.689297999999999
1600169588.506409,7.085857152938843,1.0286458e-05,-4.570312999999999
1600169588.5545514,7.133999586105347,1.0229647e-05,-4.6555295
1600169588.602554,7.182002305984497,1.0092743e-05,-4.8608855
1600169588.6505542,7.230002403259277,1.1251308e-05,-3.123038000000001
1600169588.6982515,7.277699708938599,1.0930002e-05,-3.604997000000001
1600169588.7465556,7.326003789901733,1.2669712e-05,-0.995432000000001
1600169588.794539,7.373987197875977,1.3050623e-05,-0.4240655000000011
1600169588.842551,7.421999216079712,1.2516975e-05,-1.2245375000000003
1600169588.8905513,7.469999551773071,1.1753291e-05,-2.3700635000000005
1600169588.938276,7.517724275588989,1.0157935e-05,-4.763097499999999
1600169588.9863331,7.565781354904175,1.0388903e-05,-4.416645500000001
1600169589.0345604,7.614008665084839,1.0579824e-05,-4.130263999999999
1600169589.0823638,7.66181206703186,1.0725111e-05,-3.912333499999999
1600169589.13054,7.709988117218018,1.0969117e-05,-3.5463245000000008
1600169589.177652,7.7571001052856445,1.030881e-05,-4.536785000000002
1600169589.2265186,7.805966854095459,1.09924e-05,-3.5113999999999983
1600169589.2745183,7.853966474533081,1.1335127e-05,-2.9973095
1600169589.3225193,7.901967525482178,1.1608936e-05,-2.586596
1600169589.3705182,7.9499664306640625,1.1497177e-05,-2.7542345000000026
1600169589.4180908,7.997539043426514,1.0714866e-05,-3.927700999999999
1600169589.4664085,8.045856714248657,1.0169111e-05,-4.746333499999999
1600169589.5141356,8.093583822250366,1.0209158e-05,-4.6862629999999985
1600169589.5625303,8.14197850227356,9.373762e-06,-5.939357000000001
1600169589.610523,8.189971208572388,9.668991e-06,-5.496513499999999
1600169589.6582515,8.237699747085571,7.300638e-06,-9.049043000000001
1600169589.7065225,8.285970687866211,6.418675e-06,-10.3719875
1600169589.7540329,8.333481073379517,5.993061e-06,-11.0104085
1600169589.8025315,8.381979703903198,5.697832e-06,-11.453252
1600169589.8505237,8.429971933364868,5.51343e-06,-11.729855
1600169589.8982873,8.47773551940918,3.592111e-06,-14.6118335
1600169589.946531,8.525979280471802,3.005378e-06,-15.491933
1600169589.994425,8.573873281478882,2.270564e-06,-16.594154
1600169590.0424798,8.621927976608276,2.191402e-06,-16.712896999999998
1600169590.0904095,8.669857740402222,2.707355e-06,-15.9389675
1600169590.1382515,8.717699766159058,2.545305e-06,-16.1820425
1600169590.1860938,8.765542030334473,3.054738e-06,-15.417893
1600169590.2345269,8.813975095748901,3.497116e-06,-14.754325999999999
1600169590.2822685,8.861716747283936,3.397465e-06,-14.9038025
1600169590.3305202,8.909968376159668,4.512258e-06,-13.231613
1600169590.3782997,8.95774793624878,3.85195e-06,-14.222075
1600169590.4261663,9.005614519119263,1.202337e-06,-18.1964945
1600169590.4742305,9.053678750991821,-1.625158e-06,-22.437737
1600169590.5225437,9.101991891860962,-4.382804e-06,-26.574206
1600169590.5705464,9.149994611740112,-6.210059e-06,-29.3150885
1600169590.618301,9.197749137878418,-8.733012e-06,-33.099518
1600169590.6665227,9.245970964431763,-1.0346062e-05,-35.519093
1600169590.7144134,9.293861627578735,-1.3221987e-05,-39.8329805
1600169590.762528,9.341976165771484,-1.5793368e-05,-43.690051999999994
1600169590.8105502,9.389998435974121,-1.6468577e-05,-44.7028655
1600169590.858293,9.43774127960205,-1.8370338e-05,-47.555507
1600169590.90655,9.485998153686523,-1.9405968e-05,-49.108952
1600169590.954528,9.533976316452026,-2.1614134e-05,-52.421201
1600169591.0022979,9.581746101379395,-2.4343841e-05,-56.5157615
1600169591.050108,9.62955617904663,-2.560392e-05,-58.405879999999996
1600169591.0982509,9.677699089050293,-2.7954578e-05,-61.931867000000004
1600169591.146409,9.725857257843018,-2.8924085e-05,-63.3861275
1600169591.1939294,9.773377656936646,-2.9543415e-05,-64.3151225
1600169591.242561,9.822009325027466,-3.1447969e-05,-67.1719535
1600169591.2905421,9.869990348815918,-3.2298267e-05,-68.4474005
1600169591.3382797,9.917727947235107,-3.4764409e-05,-72.1466135
1600169591.386555,9.966003179550171,-3.5979785e-05,-73.9696775
1600169591.434542,10.0139901638031,-3.8080849e-05,-77.1212735
1600169591.4824295,10.061877727508545,-3.9606355e-05,-79.4095325
1600169591.5304291,10.109877347946167,-4.0978193e-05,-81.46728949999999
1600169591.5778313,10.15727949142456,-4.2824075e-05,-84.2361125
1600169591.6265495,10.205997705459595,-4.4967979e-05,-87.4519685
1600169591.6745274,10.253975629806519,-4.7624111e-05,-91.4361665
1600169591.7224169,10.301865100860596,-4.880596e-05,-93.20894
1600169591.7705522,10.350000381469727,-4.9766153e-05,-94.6492295
1600169591.8182003,10.397648572921753,-5.1765703e-05,-97.6485545
1600169591.8664694,10.44591760635376,-5.3477474e-05,-100.216211
1600169591.91452,10.49396824836731,-5.4937787e-05,-102.4066805
1600169591.9625309,10.54197907447815,-5.6472607e-05,-104.7089105
1600169592.0105274,10.589975595474243,-5.8145262e-05,-107.217893
1600169592.058059,10.637507200241089,-5.9666112e-05,-109.499168
1600169592.1065507,10.685998916625977,-5.9892423e-05,-109.8386345
1600169592.1545274,10.733975648880005,-6.074179e-05,-111.112685
1600169592.2015452,10.780993461608887,-6.2158331e-05,-113.2374965
1600169592.250246,10.829694271087646,-6.2056817e-05,-113.0852255
1600169592.2978554,10.87730360031128,-6.3782558e-05,-115.673837
1600169592.346528,10.925976276397705,-6.409362e-05,-116.14043
1600169592.394538,10.973986148834229,-6.3766725e-05,-115.6500875
1600169592.44257,11.022018194198608,-6.4378604e-05,-116.567906
1600169592.4904244,11.069872617721558,-6.4798631e-05,-117.1979465
1600169592.538387,11.117835283279419,-6.568525e-05,-118.527875
1600169592.5865462,11.16599440574646,-6.5403059e-05,-118.1045885
1600169592.6345751,11.214023351669312,-6.5181404e-05,-117.772106
1600169592.6825776,11.262025833129883,-6.5857545e-05,-118.7863175
1600169592.730575,11.310023307800293,-6.4567663e-05,-116.8514945
1600169592.77803,11.357478141784668,-6.5919012e-05,-118.878518
1600169592.826406,11.405854225158691,-6.5555796e-05,-118.333694
1600169592.8745196,11.453967809677124,-6.484706e-05,-117.27059
1600169592.9224687,11.501916885375977,-6.5457076e-05,-118.185614
1600169592.970421,11.549869298934937,-6.3627958e-05,-115.441937
1600169593.01825,11.597698211669922,-6.4908527e-05,-117.3627905
1600169593.066409,11.645857334136963,-6.5613538e-05,-118.42030700000001
1600169593.1145368,11.693984985351562,-6.5181404e-05,-117.772106
1600169593.1625404,11.74198865890503,-6.4876862e-05,-117.31529300000001
1600169593.2096965,11.78914475440979,-6.3886866e-05,-115.830299
1600169593.2580953,11.837543487548828,-6.3618645e-05,-115.4279675
1600169593.3065453,11.885993480682373,-6.4183958e-05,-116.275937
1600169593.3543928,11.933840990066528,-6.4332038e-05,-116.498057
1600169593.4025536,11.982001781463623,-6.3423999e-05,-115.1359985
1600169593.450416,12.029864311218262,-6.2434934e-05,-113.652401
1600169593.4974713,12.076919555664062,-6.2615611e-05,-113.92341649999999
1600169593.5465212,12.125969409942627,-6.1359257e-05,-112.03888549999999
1600169593.594557,12.174005270004272,-6.1134808e-05,-111.702212
1600169593.6425185,12.221966743469238,-6.1154366e-05,-111.73154900000002
1600169593.6905484,12.269996643066406,-5.9834681e-05,-109.7520215
1600169593.7383122,12.317760467529297,-6.0576014e-05,-110.86402100000001
1600169593.7865114,12.365959644317627,-5.9823506e-05,-109.735259
1600169593.834518,12.413966178894043,-5.9402548e-05,-109.103822
1600169593.882164,12.461612224578857,-6.0267746e-05,-110.401619
1600169593.9305189,12.50996708869934,-6.0902908e-05,-111.354362
1600169593.9780867,12.55753493309021,-6.2116422e-05,-113.17463299999999
1600169594.0263488,12.605797052383423,-6.3176267e-05,-114.7644005
1600169594.0745463,12.6539945602417,-6.3044019e-05,-114.56602849999999
1600169594.122527,12.701975107192993,-6.4085238e-05,-116.127857
1600169594.170439,12.749887228012085,-6.4270571e-05,-116.4058565
1600169594.2176373,12.797085523605347,-6.6148117e-05,-119.22217549999999
1600169594.26654,12.845988273620605,-6.6344626e-05,-119.51693900000001
1600169594.314261,12.893709182739258,-7.0234761e-05,-125.3521415
1600169594.3625267,12.941974878311157,-7.2710216e-05,-129.065324
1600169594.410592,12.990040302276611,-7.2943047e-05,-129.4145705
1600169594.4580622,13.037510395050049,-7.9396181e-05,-139.0942715
1600169594.5065398,13.08598804473877,-8.1270933e-05,-141.9063995
1600169594.5543451,13.133793354034424,-8.4900297e-05,-147.35044549999998
1600169594.602542,13.181990146636963,-8.5727312e-05,-148.590968
1600169594.6505527,13.230000972747803,-8.6836517e-05,-150.2547755
1600169594.698364,13.277812242507935,-8.9618377e-05,-154.42756550000001
1600169594.7465475,13.325995683670044,-9.1915019e-05,-157.8725285
1600169594.7945526,13.374000787734985,-9.1616064e-05,-157.424096
1600169594.842415,13.421863317489624,-9.4741583e-05,-162.1123745
1600169594.890273,13.46972131729126,-9.5882453e-05,-163.8236795
1600169594.9382982,13.517746448516846,-9.5958821e-05,-163.9382315
1600169594.9856331,13.565081357955933,-9.7652897e-05,-166.4793455
1600169595.0345778,13.614026069641113,-9.8697841e-05,-168.0467615
1600169595.0825706,13.662018775939941,-9.8847784e-05,-168.27167599999999
1600169595.1305523,13.71000051498413,-0.000100686215,-171.0293225
1600169595.1784673,13.757915496826172,-0.000102585182,-173.877773
1600169595.226035,13.805483341217041,-0.000101827085,-172.7406275
1600169595.2745767,13.854024887084961,-0.000103229657,-174.8444855
1600169595.3224087,13.901856899261475,-0.000103655271,-175.48290649999998
1600169595.3705575,13.950005769729614,-0.000101924874,-172.887311
1600169595.4178555,13.99730372428894,-0.000104610808,-176.916212
1600169595.4665341,14.045982360839844,-0.000105063431,-177.5951465
1600169595.5143569,14.093805074691772,-0.000104852952,-177.279428
1600169595.5625393,14.141987562179565,-0.000105180778,-177.771167
1600169595.6105566,14.190004825592041,-0.000103785656,-175.678484
1600169595.6583707,14.237818956375122,-0.000102459453,-173.6891795
1600169595.7065437,14.285991907119751,-0.000104631297,-176.9469455
1600169595.7545154,14.333963632583618,-0.000104054809,-176.0822135
