Time, Time Since Begin, V/V Raw Data, Force 
1599938144.1523695,0.2138376235961914,1.4663e-05,1.9944999999999986
1599938144.4155264,0.47699451446533203,1.4558434e-05,1.837651000000001
1599938144.452994,0.5144622325897217,1.4560297e-05,1.8404455000000013
1599938144.4842272,0.5456953048706055,1.449883e-05,1.7482450000000007
1599938144.5372818,0.5987498760223389,1.4541671e-05,1.8125065000000014
1599938144.5841608,0.6456289291381836,1.4461577e-05,1.6923654999999975
1599938144.6155858,0.6770539283752441,1.4447607e-05,1.6714105000000004
1599938144.653222,0.7146902084350586,1.4293939e-05,1.440908499999999
1599938144.7020311,0.7634992599487305,1.4319085e-05,1.4786275000000018
1599938144.7378998,0.7993679046630859,1.4176592e-05,1.2648879999999991
1599938144.777718,0.8391861915588379,1.406949e-05,1.1042350000000027
1599938144.8157327,0.8772008419036865,1.4051795e-05,1.0776924999999977
1599938144.8697352,0.9312033653259277,1.4058314e-05,1.0874710000000007
1599938144.900975,0.9624431133270264,1.4019199e-05,1.0287985000000006
1599938144.9384327,0.9999008178710938,1.4103949e-05,1.1559235
1599938144.985482,1.046950101852417,1.4142133e-05,1.2131994999999982
1599938145.0321639,1.0936319828033447,1.4218502e-05,1.3277530000000013
1599938145.0702853,1.1317534446716309,1.4198013e-05,1.297019500000001
1599938145.101553,1.1630210876464844,1.4355406e-05,1.5331089999999996
1599938145.1388006,1.2002687454223633,1.4496967e-05,1.7454505000000005
1599938145.187488,1.2489562034606934,1.4554709e-05,1.8320635000000003
1599938145.239011,1.3004791736602783,1.4568679e-05,1.8530184999999975
1599938145.2789483,1.340416431427002,1.449883e-05,1.7482450000000007
1599938145.3101864,1.3716545104980469,1.4518388e-05,1.7775819999999989
1599938145.3553143,1.4167823791503906,1.4513731e-05,1.7705965
1599938145.386566,1.4480340480804443,1.4461577e-05,1.6923654999999975
1599938145.4397395,1.5012075901031494,1.4345162e-05,1.5177429999999994
1599938145.4711964,1.5326645374298096,1.4310703e-05,1.4660544999999985
1599938145.5180342,1.5795023441314697,1.4230609e-05,1.3459135000000018
1599938145.555824,1.6172921657562256,1.4113262e-05,1.1698930000000018
1599938145.5972762,1.6587443351745605,1.408346e-05,1.12519
1599938145.6560605,1.7175285816192627,1.4158897e-05,1.2383454999999977
1599938145.7028947,1.7643628120422363,1.452677e-05,1.7901550000000022
1599938145.740332,1.801800012588501,1.402013e-05,1.030194999999999
1599938145.8001354,1.8616034984588623,1.4495105e-05,1.7426575
1599938145.8407373,1.902205467224121,1.4268793e-05,1.4031894999999999
1599938145.8877897,1.9492578506469727,1.4171004e-05,1.2565059999999981
1599938145.940865,2.002333164215088,1.4468096e-05,1.7021440000000005
1599938145.9877663,2.049234390258789,1.4009885e-05,1.014827499999999
1599938146.0346344,2.096102476119995,1.4513731e-05,1.7705965
1599938146.0850356,2.1465036869049072,1.4255755e-05,1.383632500000001
1599938146.1318994,2.1933674812316895,1.4194287e-05,1.2914305000000006
1599938146.1726506,2.234118700027466,1.4527701e-05,1.791551499999997
1599938146.2195146,2.280982732772827,1.4078803e-05,1.118204500000001
1599938146.2705662,2.3320343494415283,1.4513731e-05,1.7705965
1599938146.3210828,2.3825509548187256,1.4241785e-05,1.3626775000000002
1599938146.3749955,2.4364635944366455,1.4147721e-05,1.2215814999999992
1599938146.4220464,2.4835145473480225,1.452677e-05,1.7901550000000022
1599938146.45795,2.519418239593506,1.4086254e-05,1.1293809999999986
1599938146.5048728,2.566340923309326,1.4511868e-05,1.7678019999999997
1599938146.5644681,2.625936269760132,1.4279038e-05,1.4185569999999998
1599938146.6161544,2.6776225566864014,1.4197081e-05,1.2956214999999993
1599938146.6583827,2.719850778579712,1.4537014e-05,1.8055209999999988
1599938146.7052522,2.7667202949523926,1.4038756e-05,1.058133999999999
1599938146.7584798,2.8199479579925537,1.4525838e-05,1.7887570000000004
1599938146.805161,2.866629123687744,1.4293939e-05,1.440908499999999
1599938146.851869,2.913337230682373,1.4192425e-05,1.2886375
1599938146.9036589,2.9651269912719727,1.4519319e-05,1.778978500000001
1599938146.9430737,3.0045418739318848,1.4038756e-05,1.058133999999999
1599938146.9901402,3.0516083240509033,1.4474615e-05,1.7119225
1599938147.043301,3.104769229888916,1.4247373e-05,1.3710595000000012
1599938147.0901682,3.1516363620758057,1.4173798e-05,1.2606970000000004
1599938147.1434064,3.2048745155334473,1.4460646e-05,1.690968999999999
1599938147.1904576,3.2519257068634033,1.4023855e-05,1.0357824999999998
1599938147.2373226,3.298790693283081,1.4527701e-05,1.791551499999997
1599938147.2749357,3.3364038467407227,1.4271587e-05,1.4073804999999986
1599938147.3217998,3.383267879486084,1.4191493e-05,1.2872395000000019
1599938147.3689373,3.430405378341675,1.4537945e-05,1.8069175000000008
1599938147.4316301,3.493098258972168,1.4047138e-05,1.0707070000000023
1599938147.47527,3.536738157272339,1.45128e-05,1.7691999999999979
1599938147.5146093,3.576077461242676,1.4194287e-05,1.2914305000000006
1599938147.5755246,3.6369926929473877,1.4157034e-05,1.235551000000001
1599938147.6223817,3.683849811553955,1.452025e-05,1.7803749999999994
1599938147.6599824,3.7214505672454834,1.408346e-05,1.12519
1599938147.706854,3.768322229385376,1.453422e-05,1.80133
1599938147.759959,3.8214271068573,1.4240853e-05,1.3612794999999984
1599938147.806629,3.8680970668792725,1.4194287e-05,1.2914305000000006
1599938147.8600497,3.921517848968506,1.4514662e-05,1.7719929999999984
1599938147.9026592,3.9641273021698,1.4060177e-05,1.090265500000001
1599938147.9599638,4.021431922912598,1.4522113e-05,1.7831694999999996
1599938147.9929142,4.05438232421875,1.4194287e-05,1.2914305000000006
1599938148.044651,4.106119155883789,1.4220364e-05,1.3305460000000018
1599938148.0917056,4.1531736850738525,1.4530495e-05,1.7957424999999994
1599938148.1447358,4.206203937530518,1.3993122e-05,0.9896829999999994
1599938148.1917982,4.253266334533691,1.457613e-05,1.8641949999999987
1599938148.2450075,4.306475639343262,1.4159828e-05,1.2397419999999997
1599938148.2920554,4.35352349281311,1.3896264e-05,0.8443959999999997
1599938148.338915,4.400383234024048,9.8655e-06,-5.201749999999999
1599938148.3920758,4.4535439014434814,9.356067e-06,-5.965899500000001
1599938148.4341736,4.495641708374023,9.739771e-06,-5.3903435
1599938148.4810834,4.542551517486572,9.452924e-06,-5.820614000000001
1599938148.5279438,4.589411973953247,9.523705e-06,-5.714442499999999
1599938148.577196,4.63866400718689,1.0420568e-05,-4.369147999999999
1599938148.6240623,4.685530424118042,9.20333e-06,-6.195005000000002
1599938148.677112,4.738580226898193,9.917654e-06,-5.123518999999998
1599938148.7239997,4.785467863082886,9.925105e-06,-5.1123425000000005
1599938148.7619882,4.823456287384033,9.784475e-06,-5.323287500000001
1599938148.8150644,4.876532554626465,9.847805e-06,-5.2282925
1599938148.8718908,4.933358907699585,8.764677e-06,-6.8529845
1599938148.9078271,4.969295263290405,8.592382e-06,-7.111427000000001
1599938148.965315,5.026783227920532,8.010305e-06,-7.9845425
1599938149.0123715,5.0738396644592285,7.850118e-06,-8.224822999999999
1599938149.0624337,5.123901844024658,8.500181e-06,-7.2497285
1599938149.109517,5.170985221862793,8.417293e-06,-7.374060499999999
1599938149.1469789,5.208446979522705,9.108335e-06,-6.337497500000001
1599938149.1940672,5.255535364151001,8.879229e-06,-6.681156499999998
1599938149.2471433,5.3086113929748535,9.317882e-06,-6.0231770000000004
1599938149.2942235,5.35569167137146,9.917654e-06,-5.123518999999998
1599938149.347089,5.408557176589966,9.433366e-06,-5.849950999999999
1599938149.3941724,5.455640554428101,1.0944903e-05,-3.582645499999998
1599938149.4475334,5.5090014934539795,1.0493211e-05,-4.2601835
1599938149.492979,5.554447174072266,1.1024997e-05,-3.462504499999998
1599938149.5400386,5.60150671005249,1.1286698e-05,-3.0699530000000017
1599938149.579189,5.640657186508179,1.0757707e-05,-3.863439500000002
1599938149.626055,5.687523126602173,1.1679716e-05,-2.4804260000000014
1599938149.6793368,5.74080491065979,1.1641532e-05,-2.5377019999999995
1599938149.7260633,5.78753137588501,1.2191944e-05,-1.7120840000000008
1599938149.7794323,5.840900421142578,1.2320466e-05,-1.5193009999999987
1599938149.8261302,5.887598276138306,1.1686236e-05,-2.4706459999999986
1599938149.8795326,5.941000699996948,1.1847354e-05,-2.2289689999999993
1599938149.925414,5.986882209777832,1.0813586e-05,-3.7796210000000023
1599938149.9640121,6.025480270385742,1.0326505e-05,-4.510242499999999
1599938150.0208292,6.082297325134277,1.0089017e-05,-4.866474500000001
1599938150.0640054,6.125473499298096,9.708107e-06,-5.437839499999999
1599938150.1107826,6.172250747680664,1.0769814e-05,-3.8452790000000014
1599938150.1641407,6.225608825683594,9.814277e-06,-5.278584499999999
1599938150.2110128,6.2724809646606445,9.601004e-06,-5.5984940000000005
1599938150.2638702,6.325338363647461,9.508803e-06,-5.736795500000001
1599938150.3109167,6.372384786605835,8.691102e-06,-6.963347000000001
1599938150.348355,6.409823179244995,9.817071e-06,-5.2743935
1599938150.4047773,6.466245412826538,9.493902e-06,-5.7591470000000005
1599938150.4487174,6.510185480117798,1.2688339e-05,-0.9674915000000013
1599938150.4958005,6.5572686195373535,1.29072e-05,-0.6391999999999989
1599938150.5521388,6.613606929779053,1.2371689e-05,-1.4424664999999983
1599938150.5870905,6.648558616638184,1.3629906e-05,0.44485899999999745
1599938150.6339562,6.695424318313599,1.2970529e-05,-0.5442065000000014
1599938150.6960995,6.757567644119263,1.348462e-05,0.2269299999999994
1599938150.7428997,6.804367780685425,1.3989396e-05,0.9840939999999989
1599938150.781064,6.842532157897949,1.3119541e-05,-0.32068849999999927
1599938150.8336768,6.895144939422607,1.4122576e-05,1.1838639999999998
1599938150.8756027,6.937070846557617,1.3150275e-05,-0.2745874999999991
1599938150.9265623,6.988030433654785,1.3250858e-05,-0.12371299999999863
1599938150.981302,7.042770147323608,1.2695789e-05,-0.9563164999999998
1599938151.0281727,7.089640855789185,1.185853e-05,-2.212205000000001
1599938151.0762675,7.137735605239868,1.2649223e-05,-1.0261655000000012
1599938151.1233165,7.184784650802612,1.175236e-05,-2.371459999999999
1599938151.1662874,7.227755546569824,1.1833385e-05,-2.2499225000000003
1599938151.2131255,7.2745935916900635,1.1497177e-05,-2.7542345000000026
1599938151.2663865,7.327854633331299,1.0136515e-05,-4.795227500000001
1599938151.3132744,7.37474250793457,1.1211261e-05,-3.1831084999999995
1599938151.3664658,7.427933931350708,1.1171214e-05,-3.243178999999998
1599938151.4133315,7.474799633026123,1.1593103e-05,-2.6103454999999975
1599938151.4510274,7.512495517730713,1.2154691e-05,-1.7679635000000005
1599938151.4981136,7.559581756591797,1.0616146e-05,-4.075780999999999
1599938151.5511873,7.612655401229858,1.1096708e-05,-3.3549380000000006
1599938151.6081908,7.669658899307251,1.0127202e-05,-4.809196999999999
1599938151.6513581,7.712826251983643,1.0523014e-05,-4.215478999999998
1599938151.6984339,7.759902000427246,1.1119992e-05,-3.3200119999999984
1599938151.751511,7.812979221343994,1.0247342e-05,-4.628987
1599938151.7984266,7.859894752502441,1.1265278e-05,-3.1020830000000004
1599938151.833789,7.895257234573364,1.0292046e-05,-4.5619309999999995
1599938151.8828385,7.9443066120147705,1.1172146e-05,-3.2417809999999996
1599938151.929704,7.9911720752716064,1.1431053e-05,-2.853420500000002
1599938151.9829738,8.044441938400269,1.1115335e-05,-3.326997500000001
1599938152.029842,8.091310024261475,1.2291595e-05,-1.5626074999999986
1599938152.0829895,8.144457578659058,1.1302531e-05,-3.0462035000000007
1599938152.1362116,8.1976797580719,1.1586584e-05,-2.6201240000000006
1599938152.1835513,8.245019435882568,1.1303462e-05,-3.0448069999999987
1599938152.230413,8.291881084442139,1.0103919e-05,-4.8441215
1599938152.2680879,8.329555988311768,1.094956e-05,-3.575659999999999
1599938152.3129148,8.374382972717285,9.815209e-06,-5.277186499999999
1599938152.367822,8.429290056228638,1.0688789e-05,-3.9668165
1599938152.4148264,8.47629451751709,1.0756776e-05,-3.8648360000000004
1599938152.4680698,8.529537916183472,1.01896e-05,-4.7156
1599938152.5149345,8.57640266418457,1.1499971e-05,-2.7500435000000003
1599938152.5680351,8.62950325012207,1.0482036e-05,-4.276945999999999
1599938152.6148915,8.6763596534729,8.516014e-06,-7.225979000000001
1599938152.6523707,8.713838815689087,9.000301e-06,-6.4995484999999995
1599938152.7118435,8.773311614990234,8.304603e-06,-7.5430955
1599938152.752595,8.81406307220459,8.954667e-06,-6.567999499999999
1599938152.8073134,8.868781566619873,7.533468e-06,-8.699798
1599938152.852764,8.914232015609741,7.917173e-06,-8.124240499999999
1599938152.9020064,8.96347451210022,7.341616e-06,-8.987576
1599938152.937955,8.999423027038574,6.594695e-06,-10.1079575
1599938153.000017,9.061485052108765,7.110648e-06,-9.334028
1599938153.0470726,9.108540773391724,5.790964e-06,-11.313554
1599938153.0847313,9.146199464797974,6.38701e-06,-10.419485
1599938153.1315978,9.193065881729126,5.702488e-06,-11.446268
1599938153.1920886,9.253556728363037,4.780479e-06,-12.8292815
1599938153.2258298,9.28729796409607,6.932765e-06,-9.6008525
1599938153.2777975,9.339265584945679,5.910173e-06,-11.1347405
1599938153.3248594,9.386327505111694,6.623566e-06,-10.064651
1599938153.3698068,9.431274890899658,6.21751e-06,-10.673735
1599938153.4320962,9.493564367294312,5.67548e-06,-11.48678
1599938153.4699626,9.531430721282959,6.293878e-06,-10.559183
1599938153.5168293,9.57829737663269,5.134381e-06,-12.2984285
1599938153.5701232,9.631591320037842,5.913898e-06,-11.129153
1599938153.616986,9.678454160690308,5.275011e-06,-12.0874835
1599938153.6706479,9.732115983963013,4.142523e-06,-13.7862155
1599938153.7201326,9.781600713729858,4.637055e-06,-13.0444175
1599938153.7600589,9.821527004241943,3.145076e-06,-15.282385999999999
1599938153.8071082,9.868576288223267,3.727153e-06,-14.4092705
1599938153.8552973,9.916765451431274,3.30247e-06,-15.046295
1599938153.9023573,9.963825464248657,2.889894e-06,-15.665159
1599938153.9553792,10.016847372055054,3.37977e-06,-14.930344999999999
1599938154.0024407,10.063908815383911,2.07033e-06,-16.894505
1599938154.0553105,10.11677861213684,2.902001e-06,-15.646998499999999
1599938154.1023948,10.163862943649292,2.530403e-06,-16.2043955
1599938154.1492577,10.210725784301758,1.914799e-06,-17.1278015
1599938154.1869442,10.248412370681763,2.332032e-06,-16.501952
1599938154.24809,10.309558153152466,1.027249e-06,-18.4591265
1599938154.2882924,10.34976053237915,1.583248e-06,-17.625128
1599938154.3353512,10.396819353103638,9.69507e-07,-18.5457395
1599938154.3871248,10.448592901229858,3.28757e-07,-19.5068645
1599938154.433989,10.495457172393799,1.003034e-06,-18.495449
1599938154.487297,10.548765182495117,-8.07457e-07,-21.2111855
1599938154.5341535,10.595621585845947,-4.07919e-07,-20.6118785
1599938154.5718398,10.633307933807373,-1.752749e-06,-22.6291235
1599938154.6187055,10.680173635482788,-2.541579e-06,-23.812368499999998
1599938154.671919,10.733387231826782,-2.731569e-06,-24.0973535
1599938154.7243316,10.785799741744995,-4.859641e-06,-27.2894615
1599938154.7761946,10.837662696838379,-4.883856e-06,-27.325784
1599938154.817184,10.878652095794678,-6.705523e-06,-30.0582845
1599938154.8699725,10.931440591812134,-8.525327e-06,-32.7879905
1599938154.9109957,10.972463846206665,-9.718351e-06,-34.5775265
1599938154.9563007,11.017768859863281,-1.222454e-05,-38.33681
1599938155.0033555,11.064823627471924,-1.2489967e-05,-38.7349505
1599938155.0562325,11.117700576782227,-1.2920238e-05,-39.380357000000004
1599938155.103315,11.164783239364624,-1.3147481e-05,-39.7212215
1599938155.1563733,11.217841386795044,-1.3030134e-05,-39.545201000000006
1599938155.1944628,11.25593090057373,-1.3397075e-05,-40.0956125
1599938155.2415123,11.302980422973633,-1.3190322e-05,-39.785483
1599938155.3037174,11.365185499191284,-1.3727695e-05,-40.5915425
1599938155.3450255,11.406493663787842,-1.5578233e-05,-43.3673495
1599938155.3885503,11.450018405914307,-1.5553087e-05,-43.3296305
1599938155.4355507,11.497018814086914,-1.6643666e-05,-44.965499
1599938155.4891856,11.55065369606018,-1.5671365e-05,-43.5070475
1599938155.5360258,11.597493886947632,-1.464691e-05,-41.970365
1599938155.5893056,11.650773763656616,-1.3331883e-05,-39.9978245
1599938155.636186,11.697654008865356,-1.3093464e-05,-39.640196
1599938155.6739109,11.735378980636597,-1.4750287e-05,-42.1254305
1599938155.7209654,11.78243350982666,-1.7675571e-05,-46.5133565
1599938155.7745802,11.836048364639282,-1.5872531e-05,-43.8087965
1599938155.8214607,11.882928848266602,-1.9781291e-05,-49.6719365
1599938155.8745396,11.936007738113403,-1.799874e-05,-46.99811
1599938155.9215891,11.983057260513306,-1.925882e-05,-48.88823
1599938155.9746542,12.03612232208252,-1.9419007e-05,-49.128510500000004
1599938156.0215237,12.0829918384552,-1.9950792e-05,-49.926187999999996
1599938156.0589435,12.12041163444519,-2.1271408e-05,-51.907112
1599938156.1060216,12.167489767074585,-2.0405278e-05,-50.607917
1599938156.159105,12.22057318687439,-2.2962689e-05,-54.444033499999996
1599938156.2061539,12.267621994018555,-2.6625581e-05,-59.9383715
1599938156.259709,12.321177005767822,-2.89483e-05,-63.42245
1599938156.306771,12.368239164352417,-3.0030496e-05,-65.045744
1599938156.3598402,12.421308279037476,-2.8358772e-05,-62.538158
1599938156.4047859,12.466253995895386,-2.9620714e-05,-64.431071
1599938156.4516528,12.513120889663696,-2.8242357e-05,-62.363535500000005
1599938156.4918067,12.553274869918823,-2.5537796e-05,-58.306694
1599938156.5386705,12.600138664245605,-2.3617409e-05,-55.4261135
1599938156.591764,12.653232097625732,-2.3417175e-05,-55.1257625
1599938156.6478877,12.70935583114624,-2.5823712e-05,-58.735568
1599938156.6920488,12.753516912460327,-2.6576221e-05,-59.8643315
1599938156.7389016,12.80036973953247,-2.5739893e-05,-58.6098395
1599938156.7920961,12.853564262390137,-2.9114075e-05,-63.6711125
1599938156.8390236,12.900491714477539,-2.9742718e-05,-64.61407700000001
1599938156.8766127,12.938080787658691,-3.0901283e-05,-66.3519245
1599938156.9350045,12.996472597122192,-3.1735748e-05,-67.603622
1599938156.9766765,13.038144588470459,-2.8856099e-05,-63.2841485
1599938157.0237205,13.085188627243042,-2.7846545e-05,-61.7698175
1599938157.0767765,13.13824462890625,-2.8801151e-05,-63.2017265
1599938157.1250107,13.186478853225708,-2.8058887e-05,-62.088330500000005
1599938157.1611218,13.22258996963501,-2.8417446e-05,-62.626169
1599938157.223796,13.285264015197754,-2.9762276e-05,-64.643414
1599938157.2612383,13.322706460952759,-3.3427961e-05,-70.1419415
1599938157.308324,13.369792222976685,-3.525801e-05,-72.88701499999999
1599938157.3613608,13.422828912734985,-3.5235658e-05,-72.853487
1599938157.408228,13.469696044921875,-3.326498e-05,-69.89747
1599938157.4615412,13.523009300231934,-3.4543686e-05,-71.815529
1599938157.5086138,13.570081949234009,-3.5124831e-05,-72.68724649999999
1599938157.5553298,13.616797924041748,-3.4965575e-05,-72.4483625
1599938157.606059,13.667527198791504,-3.6584213e-05,-74.8763195
1599938157.652739,13.714207172393799,-3.5573728e-05,-73.360592
1599938157.693902,13.755370140075684,-3.6332756e-05,-74.499134
1599938157.740766,13.802234172821045,-3.7808903e-05,-76.7133545
1599938157.794058,13.855526208877563,-3.8538128e-05,-77.807192
1599938157.8409228,13.902390956878662,-3.9044768e-05,-78.567152
1599938157.8941941,13.955662250518799,-3.9428473e-05,-79.1427095
1599938157.941054,14.002522230148315,-3.9460137e-05,-79.19020549999999
1599938157.985973,14.047441005706787,-3.856048e-05,-77.84072
1599938158.0330136,14.094481706619263,-3.9103441e-05,-78.65516149999999
1599938158.0851452,14.146613359451294,-4.065875e-05,-80.988125
1599938158.1318176,14.193285703659058,-4.192628e-05,-82.88942
1599938158.1798003,14.241268396377563,-4.3206848e-05,-84.810272
1599938158.2266643,14.288132429122925,-4.3786131e-05,-85.6791965
1599938158.279955,14.341423034667969,-4.4627115e-05,-86.9406725
1599938158.3268127,14.388280868530273,-4.5301393e-05,-87.9520895
1599938158.3642747,14.425742864608765,-4.6861358e-05,-90.292037
1599938158.411357,14.472825050354004,-4.8454851e-05,-92.6822765
